"Time"	"P(t), Reactive, bar"	"P'(t), Reactive, bar/ms"	"P(t), Non-Reactive, bar"
-30.000	3.2363	 -0.06381	3.2868						
-29.990	3.2363	 -0.11167	3.2836						
-29.980	3.2331	 0.015953	3.2820						
-29.970	3.2379	 0.015954	3.2804						
-29.960	3.2347	 0.223340	3.2804						
-29.950	3.2379	 0.015954	3.2804						
-29.940	3.2395	 0.063813	3.2788						
-29.930	3.2411	 0.079766	3.2804						
-29.920	3.2395	 0.031907	3.2836						
-29.910	3.2379	-0.031904	3.2884						
-29.900	3.2411	 0.14357	3.2884						
-29.890	3.2411	 0.23929	3.2884						
-29.880	3.2427	 0.079762	3.2836						
-29.870	3.2475	 0.095716	3.2836						
-29.860	3.2475	 0.22334	3.2820						
-29.850	3.2459	 0.095716	3.2836						
-29.840	3.2475	 0.17548	3.2868						
-29.830	3.2523	 0.23929	3.2852						
-29.820	3.2538	 0.23929	3.2884						
-29.810	3.2570	 0.14357	3.2868						
-29.800	3.2570	-0.015952	3.2884						
-29.790	3.2570	 0.079763	3.2868						
-29.780	3.2570	-0.079764	3.2852						
-29.770	3.2538	-0.063811	3.2900						
-29.760	3.2586	-0.015954	3.2884						
-29.750	3.2538	 0.17548	3.2884						
-29.740	3.2554	-0.015954	3.2868						
-29.730	3.2586	 0.17548	3.2868						
-29.720	3.2602	 0.079761	3.2852						
-29.710	3.2602	-0.047858	3.2836						
-29.700	3.2602	-0.079764	3.2836						
-29.690	3.2570	-0.12762	3.2820						
-29.680	3.2554	-0.17548	3.2868						
-29.670	3.2554	-0.031905	3.2868						
-29.660	3.2538	-0.015952	3.2836						
-29.650	3.2538	-0.079763	3.2836						
-29.640	3.2554	-0.031905	3.2788						
-29.630	3.2538	 2.8834e-14	3.2772						
-29.620	3.2523	-0.095715	3.2740						
-29.610	3.2523	-0.14357	3.2725						
-29.600	3.2523	 0.031905	3.2709						
-29.590	3.2507	-0.079763	3.2740						
-29.580	3.2491	-0.047858	3.2756						
-29.570	3.2523	 0.015952	3.2725						
-29.560	3.2491	 0.015954	3.2756						
-29.550	3.2507	-0.14357	3.2772						
-29.540	3.2507	-0.095716	3.2756						
-29.530	3.2475	-0.12762	3.2772						
-29.520	3.2459	-0.063810	3.2740						
-29.510	3.2443	 0.031905	3.2740						
-29.500	3.2459	 0.031905	3.2740						
-29.490	3.2491	 0.015952	3.2756						
-29.480	3.2491	 0.11167	3.2740						
-29.470	3.2475	-0.047858	3.2725						
-29.460	3.2459	-0.015952	3.2772						
-29.450	3.2491	 0.047858	3.2756						
-29.440	3.2475	 0.015953	3.2788						
-29.430	3.2491	-0.031905	3.2820						
-29.420	3.2491	-0.047860	3.2836						
-29.410	3.2459	-1.0000e-06	3.2836						
-29.400	3.2475	-0.031907	3.2820						
-29.390	3.2459	 0.063810	3.2820						
-29.380	3.2491	 0.095715	3.2820						
-29.370	3.2491	 0.031905	3.2804						
-29.360	3.2491	-0.063811	3.2788						
-29.350	3.2507	-0.11167	3.2756						
-29.340	3.2459	 0.063810	3.2788						
-29.330	3.2459	-0.079763	3.2788						
-29.320	3.2459	 0.031906	3.2820						
-29.310	3.2507	 0.11167	3.2804						
-29.300	3.2491	 0.19143	3.2804						
-29.290	3.2491	 0.079764	3.2788						
-29.280	3.2523	 0.095716	3.2756						
-29.270	3.2538	 0.20738	3.2772						
-29.260	3.2554	 0.19143	3.2772						
-29.250	3.2554	 0.063811	3.2772						
-29.240	3.2586	 0.15953	3.2788						
-29.230	3.2602	 0.14357	3.2772						
-29.220	3.2586	 0.20738	3.2756						
-29.210	3.2634	 0.15953	3.2740						
-29.200	3.2634	 0.19143	3.2788						
-29.190	3.2682	 0.11167	3.2820						
-29.180	3.2682	 0.063811	3.2820						
-29.170	3.2666	 0.063811	3.2884						
-29.160	3.2682	 0.031906	3.2852						
-29.150	3.2666	 0.17548	3.2900						
-29.140	3.2714	 1.0000e-06	3.2900						
-29.130	3.2714	 0.15953	3.2868						
-29.120	3.2730	 0.015953	3.2836						
-29.110	3.2698	-0.11167	3.2820						
-29.100	3.2714	-0.17548	3.2804						
-29.090	3.2698	-0.079764	3.2804						
-29.080	3.2650	-0.20739	3.2804						
-29.070	3.2650	-0.23929	3.2804						
-29.060	3.2634	-0.30310	3.2820						
-29.050	3.2602	-0.27120	3.2820						
-29.040	3.2570	-0.23929	3.2836						
-29.030	3.2507	-0.14357	3.2852						
-29.020	3.2523	-0.33501	3.2884						
-29.010	3.2523	-0.20738	3.2884						
-29.000	3.2507	-0.14357	3.2852						
-28.990	3.2427	-0.20738	3.2820						
-28.980	3.2411	-0.20739	3.2756						
-28.970	3.2443	-0.063810	3.2740						
-28.960	3.2427	0.015951	3.2804						
-28.950	3.2427	-0.25524	3.2756						
-28.940	3.2395	-0.15953	3.2740						
-28.930	3.2379	-0.15953	3.2772						
-28.920	3.2331	-0.19143	3.2788						
-28.910	3.2347	-0.095716	3.2804						
-28.900	3.2347	-0.11167	3.2820						
-28.890	3.2315	-0.11167	3.2852						
-28.880	3.2331	5.0000e-07	3.2900						
-28.870	3.2283	0.079765	3.2932						
-28.860	3.2315	0.12762	3.2916						
-28.850	3.2363	0.20739	3.2916						
-28.840	3.2363	0.047858	3.2884						
-28.830	3.2395	-0.23929	3.2852						
-28.820	3.2347	-0.095715	3.2852						
-28.810	3.2299	-0.11167	3.2836						
-28.800	3.2267	-0.14357	3.2820						
-28.790	3.2315	0.079763	3.2836						
-28.780	3.2347	0.19143	3.2900						
-28.770	3.2315	0.047858	3.2884						
-28.760	3.2347	-0.15953	3.2836						
-28.750	3.2331	0.079764	3.2868						
-28.740	3.2315	-0.047856	3.2868						
-28.730	3.2299	-0.15953	3.2852						
-28.720	3.2331	-0.015951	3.2884						
-28.710	3.2315	0.11167	3.2884						
-28.700	3.2283	0.14357	3.2868						
-28.690	3.2331	0.23929	3.2836						
-28.680	3.2363	0.14357	3.2804						
-28.670	3.2411	0.031904	3.2788						
-28.660	3.2411	-0.047858	3.2804						
-28.650	3.2331	-0.12762	3.2836						
-28.640	3.2331	-0.14357	3.2852						
-28.630	3.2331	0.20739	3.2836						
-28.620	3.2363	0.19143	3.2804						
-28.610	3.2395	0.11167	3.2836						
-28.600	3.2427	0.12762	3.2852						
-28.590	3.2411	-0.063809	3.2820						
-28.580	3.2379	-0.12762	3.2804						
-28.570	3.2395	-0.015952	3.2772						
-28.560	3.2363	0.23929	3.2772						
-28.550	3.2395	0.15953	3.2772						
-28.540	3.2443	0.25524	3.2756						
-28.530	3.2491	0.31905	3.2725						
-28.520	3.2491	0.20739	3.2725						
-28.510	3.2491	-0.015951	3.2725						
-28.500	3.2523	-0.079761	3.2740						
-28.490	3.2507	-0.079762	3.2740						
-28.480	3.2475	0.047860	3.2756						
-28.470	3.2459	0.063812	3.2740						
-28.460	3.2475	0.14357	3.2725						
-28.450	3.2554	0.19143	3.2677						
-28.440	3.2554	0.22334	3.2645						
-28.430	3.2554	0.095716	3.2693						
-28.420	3.2554	0.19143	3.2709						
-28.410	3.2570	0.20738	3.2725						
-28.400	3.2618	0.15953	3.2709						
-28.390	3.2650	0.23929	3.2725						
-28.380	3.2650	0.031907	3.2740						
-28.370	3.2634	-0.079763	3.2725						
-28.360	3.2650	-0.079763	3.2740						
-28.350	3.2618	0.047858	3.2725						
-28.340	3.2618	0.047858	3.2740						
-28.330	3.2634	0.17548	3.2788						
-28.320	3.2666	0.22333	3.2788						
-28.310	3.2698	0.25524	3.2788						
-28.300	3.2714	0.23929	3.2788						
-28.290	3.2730	0.047856	3.2788						
-28.280	3.2746	-0.095716	3.2756						
-28.270	3.2746	-0.095716	3.2772						
-28.260	3.2698	-0.095716	3.2804						
-28.250	3.2666	-0.12762	3.2804						
-28.240	3.2682	-0.015952	3.2820						
-28.230	3.2698	-0.031906	3.2772						
-28.220	3.2698	-0.095716	3.2740						
-28.210	3.2682	-0.19143	3.2725						
-28.200	3.2634	-0.20738	3.2740						
-28.190	3.2618	-0.22334	3.2756						
-28.180	3.2602	-0.031906	3.2740						
-28.170	3.2602	-0.015954	3.2772						
-28.160	3.2602	-0.031905	3.2788						
-28.150	3.2618	-0.079762	3.2804						
-28.140	3.2602	-0.17548	3.2788						
-28.130	3.2570	-0.28715	3.2756						
-28.120	3.2538	-0.39881	3.2725						
-28.110	3.2491	-0.35096	3.2725						
-28.100	3.2459	-0.43072	3.2740						
-28.090	3.2411	-0.23929	3.2740						
-28.080	3.2395	-0.12762	3.2772						
-28.070	3.2363	-0.031905	3.2772						
-28.060	3.2395	-0.047858	3.2756						
-28.050	3.2411	0.015953	3.2804						
-28.040	3.2395	0.015952	3.2820						
-28.030	3.2379	-0.12762	3.2836						
-28.020	3.2363	-0.19143	3.2900						
-28.010	3.2379	-0.015955	3.2932						
-28.000	3.2347	0.063809	3.2932						
-27.990	3.2331	-0.047859	3.2916						
-27.980	3.2379	0.031905	3.2900						
-27.970	3.2379	2.6546e-14	3.2900						
-27.960	3.2363	-0.19143	3.2884						
-27.950	3.2347	-0.23929	3.2884						
-27.940	3.2299	-0.11167	3.2884						
-27.930	3.2283	-0.14358	3.2884						
-27.920	3.2283	0.079763	3.2932						
-27.910	3.2315	0.11167	3.2964						
-27.900	3.2315	0.17548	3.2948						
-27.890	3.2347	0.12762	3.2932						
-27.880	3.2347	0.15953	3.2916						
-27.870	3.2363	0.079763	3.2884						
-27.860	3.2379	0.031904	3.2868						
-27.850	3.2379	0.047858	3.2852						
-27.840	3.2379	-0.047858	3.2852						
-27.830	3.2363	0.079763	3.2852						
-27.820	3.2379	0.14357	3.2820						
-27.810	3.2379	0.11167	3.2788						
-27.800	3.2427	0.031907	3.2788						
-27.790	3.2443	0.14357	3.2772						
-27.780	3.2411	0.047858	3.2788						
-27.770	3.2411	0.14357	3.2788						
-27.760	3.2443	0.28715	3.2788						
-27.750	3.2475	0.33501	3.2756						
-27.740	3.2538	0.25524	3.2788						
-27.730	3.2554	0.11167	3.2804						
-27.720	3.2554	-0.031904	3.2756						
-27.710	3.2538	-0.079764	3.2740						
-27.700	3.2507	0.047858	3.2709						
-27.690	3.2523	0.079762	3.2740						
-27.680	3.2538	0.14357	3.2740						
-27.670	3.2586	0.079763	3.2740						
-27.660	3.2586	0.17548	3.2725						
-27.650	3.2570	0.015953	3.2693						
-27.640	3.2570	0.079764	3.2677						
-27.630	3.2602	0.063810	3.2645						
-27.620	3.2602	-0.015953	3.2613						
-27.610	3.2618	-0.031907	3.2629						
-27.600	3.2586	-0.063813	3.2597						
-27.590	3.2554	-0.27120	3.2597						
-27.580	3.2570	-0.20739	3.2629						
-27.570	3.2538	-0.20739	3.2613						
-27.560	3.2491	-0.39882	3.2629						
-27.550	3.2475	-0.28715	3.2613						
-27.540	3.2427	-0.23929	3.2565						
-27.530	3.2395	-0.14357	3.2517						
-27.520	3.2411	-0.031907	3.2501						
-27.510	3.2395	0.11167	3.2469						
-27.500	3.2427	-0.015953	3.2517						
-27.490	3.2427	-0.015950	3.2533						
-27.480	3.2427	-0.14357	3.2517						
-27.470	3.2395	-0.19143	3.2533						
-27.460	3.2363	-0.25524	3.2533						
-27.450	3.2347	-0.047859	3.2549						
-27.440	3.2331	-0.12762	3.2533						
-27.430	3.2331	-0.063812	3.2581						
-27.420	3.2363	-5.0000e-07	3.2629						
-27.410	3.2315	0.095716	3.2613						
-27.400	3.2331	0.031906	3.2629						
-27.390	3.2347	0.27120	3.2629						
-27.380	3.2379	0.11167	3.2597						
-27.370	3.2411	0.14358	3.2629						
-27.360	3.2427	0.22334	3.2613						
-27.350	3.2395	0.12762	3.2645						
-27.340	3.2427	0.095716	3.2677						
-27.330	3.2475	0.20739	3.2693						
-27.320	3.2475	0.20739	3.2709						
-27.310	3.2491	0.079764	3.2740						
-27.300	3.2491	0.047858	3.2709						
-27.290	3.2507	-0.031907	3.2693						
-27.280	3.2507	0.047857	3.2725						
-27.270	3.2491	0.095716	3.2740						
-27.260	3.2491	0.095716	3.2740						
-27.250	3.2523	0.047859	3.2756						
-27.240	3.2554	0.22334	3.2788						
-27.230	3.2554	0.14357	3.2756						
-27.220	3.2538	0.14357	3.2677						
-27.210	3.2586	1.5000e-06	3.2693						
-27.200	3.2586	0.015953	3.2693						
-27.190	3.2602	-0.079764	3.2709						
-27.180	3.2554	0.063810	3.2725						
-27.170	3.2538	0.031904	3.2693						
-27.160	3.2570	0.11167	3.2709						
-27.150	3.2618	0.17548	3.2709						
-27.140	3.2634	0.17548	3.2709						
-27.130	3.2618	0.063810	3.2677						
-27.120	3.2618	-0.063810	3.2677						
-27.110	3.2634	0.015952	3.2661						
-27.100	3.2634	0.047858	3.2693						
-27.090	3.2618	0.11167	3.2725						
-27.080	3.2634	0.031906	3.2725						
-27.070	3.2650	0.20738	3.2725						
-27.060	3.2682	-0.015953	3.2740						
-27.050	3.2666	-0.031907	3.2740						
-27.040	3.2682	-0.12762	3.2740						
-27.030	3.2618	-0.12762	3.2756						
-27.020	3.2618	-0.19143	3.2804						
-27.010	3.2618	-0.015954	3.2820						
-27.000	3.2602	0.047858	3.2852						
-26.990	3.2618	0.031905	3.2868						
-26.980	3.2618	-0.031905	3.2852						
-26.970	3.2634	-0.12762	3.2884						
-26.960	3.2618	-0.11167	3.2932						
-26.950	3.2570	-0.17548	3.2948						
-26.940	3.2554	-0.14357	3.2964						
-26.930	3.2554	-0.12762	3.2996						
-26.920	3.2554	0.015952	3.3028						
-26.910	3.2554	-0.12762	3.3044						
-26.900	3.2523	-0.11167	3.3044						
-26.890	3.2538	-0.20739	3.3012						
-26.880	3.2491	-0.047858	3.2996						
-26.870	3.2491	-0.20739	3.2980						
-26.860	3.2475	0.14357	3.3012						
-26.850	3.2491	0.095717	3.3012						
-26.840	3.2491	0.095716	3.2996						
-26.830	3.2554	0.11167	3.2996						
-26.820	3.2538	0.11167	3.2996						
-26.810	3.2523	-0.063809	3.2996						
-26.800	3.2538	0.015953	3.3012						
-26.790	3.2523	0.063811	3.2964						
-26.780	3.2538	0.015953	3.2964						
-26.770	3.2554	0.19143	3.2932						
-26.760	3.2554	0.11167	3.2852						
-26.750	3.2570	0.095716	3.2820						
-26.740	3.2602	0.015952	3.2804						
-26.730	3.2586	0.031903	3.2804						
-26.720	3.2586	-0.19143	3.2788						
-26.710	3.2554	-0.063809	3.2772						
-26.700	3.2554	-0.17548	3.2788						
-26.690	3.2523	-0.11167	3.2788						
-26.680	3.2538	-0.12762	3.2740						
-26.670	3.2507	-0.19143	3.2740						
-26.660	3.2491	-0.33500	3.2740						
-26.650	3.2475	-0.17548	3.2740						
-26.640	3.2411	-0.25524	3.2756						
-26.630	3.2395	-0.23929	3.2740						
-26.620	3.2411	-0.015953	3.2756						
-26.610	3.2379	0.079762	3.2709						
-26.600	3.2395	-0.079765	3.2677						
-26.590	3.2411	-5.0000e-07	3.2709						
-26.580	3.2411	-0.047860	3.2709						
-26.570	3.2379	-0.20739	3.2725						
-26.560	3.2363	-0.14357	3.2756						
-26.550	3.2347	-0.23929	3.2756						
-26.540	3.2315	-0.14357	3.2740						
-26.530	3.2331	-0.047856	3.2756						
-26.520	3.2283	0.14358	3.2756						
-26.510	3.2315	-0.079764	3.2756						
-26.500	3.2347	0.19143	3.2709						
-26.490	3.2363	0.12762	3.2709						
-26.480	3.2331	0.015952	3.2740						
-26.470	3.2363	0.031905	3.2756						
-26.460	3.2363	0.17548	3.2725						
-26.450	3.2363	0.015953	3.2693						
-26.440	3.2395	0.079765	3.2661						
-26.430	3.2395	0.047860	3.2661						
-26.420	3.2379	-0.015951	3.2661						
-26.410	3.2395	5.0000e-07	3.2693						
-26.400	3.2379	0.11167	3.2725						
-26.390	3.2395	0.031905	3.2725						
-26.380	3.2411	0.14357	3.2709						
-26.370	3.2427	0.079765	3.2725						
-26.360	3.2427	0.079765	3.2725						
-26.350	3.2443	0.27119	3.2756						
-26.340	3.2443	0.14357	3.2725						
-26.330	3.2475	0.12762	3.2725						
-26.320	3.2538	0.031904	3.2740						
-26.310	3.2491	0.095716	3.2756						
-26.300	3.2491	-0.17548	3.2772						
-26.290	3.2459	0.047858	3.2772						
-26.280	3.2491	0.031904	3.2788						
-26.270	3.2491	0.25524	3.2788						
-26.260	3.2523	0.15953	3.2788						
-26.250	3.2538	0.19143	3.2804						
-26.240	3.2570	0.12762	3.2836						
-26.230	3.2570	0.095714	3.2868						
-26.220	3.2570	-0.031905	3.2868						
-26.210	3.2570	-0.22334	3.2868						
-26.200	3.2554	-0.23929	3.2852						
-26.190	3.2523	-0.22334	3.2868						
-26.180	3.2459	-0.17548	3.2900						
-26.170	3.2459	-0.063812	3.2916						
-26.160	3.2475	0.063810	3.2916						
-26.150	3.2491	-0.047858	3.2916						
-26.140	3.2507	1.0000e-06	3.2948						
-26.130	3.2475	-0.015952	3.2932						
-26.120	3.2443	-0.015950	3.2932						
-26.110	3.2475	0.11167	3.2948						
-26.100	3.2491	0.20738	3.2948						
-26.090	3.2523	0.11167	3.2948						
-26.080	3.2538	0.015952	3.2964						
-26.070	3.2523	-0.11167	3.2948						
-26.060	3.2507	-0.19143	3.2980						
-26.050	3.2475	-0.079763	3.2996						
-26.040	3.2459	-0.14357	3.2996						
-26.030	3.2459	-0.095716	3.2980						
-26.020	3.2475	-0.14357	3.2964						
-26.010	3.2443	-1.0000e-06	3.2948						
-26.000	3.2427	-0.031907	3.2916						
-25.990	3.2411	0.031905	3.2916						
-25.980	3.2459	0.12762	3.2916						
-25.970	3.2475	0.15953	3.2884						
-25.960	3.2475	0.047858	3.2868						
-25.950	3.2491	0.079763	3.2836						
-25.940	3.2475	0.12762	3.2836						
-25.930	3.2491	0.095715	3.2884						
-25.920	3.2523	0.23929	3.2852						
-25.910	3.2538	0.095714	3.2836						
-25.900	3.2554	0.12762	3.2852						
-25.890	3.2570	0.015952	3.2868						
-25.880	3.2538	0.095716	3.2836						
-25.870	3.2570	-0.063809	3.2820						
-25.860	3.2554	0.14357	3.2788						
-25.850	3.2586	0.047858	3.2804						
-25.840	3.2570	0.19143	3.2772						
-25.830	3.2602	0.14357	3.2756						
-25.820	3.2618	0.30310	3.2756						
-25.810	3.2650	0.28715	3.2740						
-25.800	3.2682	0.22334	3.2740						
-25.790	3.2714	0.20739	3.2740						
-25.780	3.2730	-0.063810	3.2725						
-25.770	3.2714	0.031905	3.2740						
-25.760	3.2714	0.031905	3.2725						
-25.750	3.2666	0.047858	3.2756						
-25.740	3.2730	-0.015953	3.2772						
-25.730	3.2746	0.11167	3.2725						
-25.720	3.2730	-0.14357	3.2740						
-25.710	3.2714	-0.11167	3.2725						
-25.700	3.2682	-0.11167	3.2725						
-25.690	3.2666	0.015953	3.2725						
-25.680	3.2698	0.031906	3.2756						
-25.670	3.2698	0.19143	3.2772						
-25.660	3.2730	1.5935e-13	3.2788						
-25.650	3.2714	0.015952	3.2756						
-25.640	3.2730	-0.031904	3.2772						
-25.630	3.2698	-0.031906	3.2836						
-25.620	3.2698	-0.031906	3.2820						
-25.610	3.2714	-0.047858	3.2852						
-25.600	3.2698	-0.015954	3.2884						
-25.590	3.2714	-0.015953	3.2868						
-25.580	3.2682	0.15953	3.2884						
-25.570	3.2698	0.063812	3.2852						
-25.560	3.2730	0.063812	3.2884						
-25.550	3.2762	0.079765	3.2884						
-25.540	3.2746	0.047859	3.2932						
-25.530	3.2714	0.015953	3.2980						
-25.520	3.2730	-0.063811	3.2980						
-25.510	3.2746	0.079762	3.2980						
-25.500	3.2762	-0.047860	3.2980						
-25.490	3.2730	-0.095717	3.2980						
-25.480	3.2730	-0.14357	3.2980						
-25.470	3.2698	-0.015953	3.3012						
-25.460	3.2698	0.031904	3.3012						
-25.450	3.2714	0.063810	3.3012						
-25.440	3.2730	-0.031907	3.3044						
-25.430	3.2746	8.8569e-14	3.3044						
-25.420	3.2714	-0.095715	3.3091						
-25.410	3.2682	-0.11167	3.3075						
-25.400	3.2698	-0.079763	3.3075						
-25.390	3.2682	-0.015952	3.3107						
-25.380	3.2698	-0.031905	3.3091						
-25.370	3.2682	-0.11167	3.3107						
-25.360	3.2666	-0.19143	3.3107						
-25.350	3.2666	-0.12762	3.3091						
-25.340	3.2618	-0.031905	3.3060						
-25.330	3.2618	-0.12762	3.3060						
-25.320	3.2634	0.15953	3.3075						
-25.310	3.2650	0.14357	3.3123						
-25.300	3.2650	0.23929	3.3107						
-25.290	3.2698	0.063812	3.3107						
-25.280	3.2698	0.23929	3.3091						
-25.270	3.2730	0.031907	3.3075						
-25.260	3.2698	-0.079761	3.3075						
-25.250	3.2730	-0.11167	3.3091						
-25.240	3.2698	0.12762	3.3091						
-25.230	3.2666	0.079764	3.3060						
-25.220	3.2714	0.20738	3.3060						
-25.210	3.2762	0.30310	3.3075						
-25.200	3.2794	0.23929	3.3060						
-25.190	3.2810	-5.0000e-07	3.3028						
-25.180	3.2794	-0.031904	3.3060						
-25.170	3.2794	0.015955	3.3075						
-25.160	3.2762	0.19143	3.3060						
-25.150	3.2794	0.063811	3.3075						
-25.140	3.2842	0.19143	3.3060						
-25.130	3.2873	0.15953	3.3044						
-25.120	3.2842	-0.015953	3.3044						
-25.110	3.2842	-0.11167	3.3012						
-25.100	3.2842	0.015952	3.2996						
-25.090	3.2826	0.095716	3.2980						
-25.080	3.2842	-0.047858	3.2996						
-25.070	3.2858	0.095714	3.2996						
-25.060	3.2873	0.15953	3.2996						
-25.050	3.2842	0.015951	3.2964						
-25.040	3.2873	-0.12762	3.2916						
-25.030	3.2889	-0.063810	3.2916						
-25.020	3.2842	-0.23929	3.2900						
-25.010	3.2810	-0.33500	3.2868						
-25.000	3.2778	-0.23929	3.2884						
-24.990	3.2746	-0.095715	3.2868						
-24.980	3.2746	-0.12762	3.2868						
-24.970	3.2746	0.031904	3.2820						
-24.960	3.2762	-0.17548	3.2836						
-24.950	3.2730	-0.079765	3.2804						
-24.940	3.2730	-0.25524	3.2820						
-24.930	3.2666	-0.14357	3.2836						
-24.920	3.2682	-0.22334	3.2836						
-24.910	3.2650	-0.079763	3.2836						
-24.900	3.2650	-0.25524	3.2836						
-24.890	3.2634	-0.17548	3.2852						
-24.880	3.2602	-0.12762	3.2820						
-24.870	3.2570	-0.20738	3.2820						
-24.860	3.2570	-0.047857	3.2852						
-24.850	3.2586	0.22334	3.2868						
-24.840	3.2570	0.14357	3.2900						
-24.830	3.2618	0.047858	3.2900						
-24.820	3.2666	0.22334	3.2900						
-24.810	3.2634	0.15953	3.2932						
-24.800	3.2634	0.047856	3.2900						
-24.790	3.2666	0.079763	3.2916						
-24.780	3.2682	0.22334	3.2932						
-24.770	3.2698	-0.11167	3.2980						
-24.760	3.2682	0.047856	3.2996						
-24.750	3.2698	-0.015953	3.3012						
-24.740	3.2634	0.047856	3.3012						
-24.730	3.2698	-0.095717	3.2996						
-24.720	3.2698	0.22334	3.3028						
-24.710	3.2698	0.095715	3.3060						
-24.700	3.2698	0.19143	3.3107						
-24.690	3.2730	0.19143	3.3107						
-24.680	3.2762	0.25524	3.3155						
-24.670	3.2794	0.14357	3.3155						
-24.660	3.2794	-0.015954	3.3123						
-24.650	3.2794	-0.30310	3.3139						
-24.640	3.2762	-0.19143	3.3139						
-24.630	3.2714	-0.11167	3.3139						
-24.620	3.2666	-0.11167	3.3155						
-24.610	3.2714	-0.015953	3.3155						
-24.600	3.2746	0.15953	3.3203						
-24.590	3.2730	0.11167	3.3203						
-24.580	3.2730	-0.063810	3.3203						
-24.570	3.2730	0.063811	3.3203						
-24.560	3.2746	-0.015951	3.3171						
-24.550	3.2730	-0.079761	3.3171						
-24.540	3.2746	-0.047856	3.3171						
-24.530	3.2714	0.031907	3.3187						
-24.520	3.2698	-0.079763	3.3155						
-24.510	3.2730	5.0000e-07	3.3139						
-24.500	3.2730	-0.063811	3.3123						
-24.490	3.2714	-0.15953	3.3107						
-24.480	3.2698	-0.19143	3.3091						
-24.470	3.2650	-0.12762	3.3091						
-24.460	3.2650	-0.095716	3.3091						
-24.450	3.2650	0.095716	3.3075						
-24.440	3.2666	0.095716	3.3091						
-24.430	3.2682	0.079764	3.3091						
-24.420	3.2698	0.15953	3.3091						
-24.410	3.2698	0.079764	3.3091						
-24.400	3.2698	0.047858	3.3091						
-24.390	3.2730	-0.031904	3.3060						
-24.380	3.2714	0.12762	3.3028						
-24.370	3.2714	-0.12762	3.3028						
-24.360	3.2698	0.047858	3.3044						
-24.350	3.2730	0.11167	3.3044						
-24.340	3.2698	0.095716	3.3028						
-24.330	3.2746	-0.015953	3.3012						
-24.320	3.2762	0.079764	3.3012						
-24.310	3.2730	-0.095716	3.2996						
-24.300	3.2730	-0.047856	3.3012						
-24.290	3.2714	0.11167	3.3044						
-24.280	3.2714	0.031906	3.3028						
-24.270	3.2762	0.14357	3.3060						
-24.260	3.2778	0.12762	3.3075						
-24.250	3.2762	0.063810	3.3107						
-24.240	3.2778	-0.031905	3.3075						
-24.230	3.2762	5.0000e-07	3.3091						
-24.220	3.2778	-0.14357	3.3091						
-24.210	3.2762	0.015951	3.3107						
-24.200	3.2746	-0.095716	3.3091						
-24.190	3.2730	0.063810	3.3123						
-24.180	3.2762	0.079761	3.3139						
-24.170	3.2762	0.35096	3.3187						
-24.160	3.2810	0.31905	3.3203						
-24.150	3.2826	0.15953	3.3203						
-24.140	3.2889	0.079763	3.3235						
-24.130	3.2889	0.047858	3.3251						
-24.120	3.2826	-0.031905	3.3235						
-24.110	3.2842	5.0000e-07	3.3251						
-24.100	3.2842	0.22334	3.3219						
-24.090	3.2889	0.11167	3.3235						
-24.080	3.2921	0.20739	3.3251						
-24.070	3.2921	0.063812	3.3203						
-24.060	3.2905	0.079763	3.3219						
-24.050	3.2921	1.7710e-13	3.3171						
-24.040	3.2921	0.079762	3.3219						
-24.030	3.2953	0.14357	3.3235						
-24.020	3.2937	0.14357	3.3219						
-24.010	3.2953	-0.031904	3.3251						
-24.000	3.2985	0.079764	3.3251						
-23.990	3.2969	0.12762	3.3251						
-23.980	3.2953	-0.15953	3.3267						
-23.970	3.2969	-0.15953	3.3219						
-23.960	3.2969	-0.20739	3.3235						
-23.950	3.2905	-0.095716	3.3267						
-23.940	3.2889	-0.079763	3.3267						
-23.930	3.2873	0.12762	3.3251						
-23.920	3.2937	0.23929	3.3299						
-23.910	3.2969	0.25524	3.3299						
-23.900	3.2985	0.079763	3.3299						
-23.890	3.3001	0.063809	3.3283						
-23.880	3.2969	-0.015953	3.3315						
-23.870	3.2969	-0.095716	3.3347						
-23.860	3.2985	-0.015952	3.3331						
-23.850	3.2969	0.047858	3.3379						
-23.840	3.2969	5.0000e-07	3.3347						
-23.830	3.2969	-0.031907	3.3331						
-23.820	3.2985	0.079763	3.3347						
-23.810	3.2985	0.047858	3.3299						
-23.800	3.2969	0.031905	3.3315						
-23.790	3.3001	-0.11167	3.3331						
-23.780	3.2985	0.047858	3.3315						
-23.770	3.2985	-0.031907	3.3331						
-23.760	3.2953	0.095715	3.3347						
-23.750	3.2985	-9.2925e-14	3.3347						
-23.740	3.3001	0.015952	3.3315						
-23.730	3.3017	0.015954	3.3331						
-23.720	3.2985	-0.095715	3.3283						
-23.710	3.2953	-0.20738	3.3283						
-23.700	3.2969	-0.19143	3.3331						
-23.690	3.2937	-0.079762	3.3315						
-23.680	3.2921	-0.17548	3.3267						
-23.670	3.2905	-0.063810	3.3251						
-23.660	3.2905	0.047858	3.3235						
-23.650	3.2905	-0.031904	3.3203						
-23.640	3.2921	0.079765	3.3251						
-23.630	3.2937	0.079765	3.3251						
-23.620	3.2905	-0.079761	3.3251						
-23.610	3.2937	-0.047858	3.3267						
-23.600	3.2921	0.031905	3.3267						
-23.590	3.2889	-0.095716	3.3251						
-23.580	3.2921	-0.031905	3.3235						
-23.570	3.2905	0.095716	3.3251						
-23.560	3.2905	-0.031904	3.3203						
-23.550	3.2921	0.047858	3.3219						
-23.540	3.2921	0.15953	3.3251						
-23.530	3.2921	-0.015953	3.3235						
-23.520	3.2937	-0.11167	3.3267						
-23.510	3.2953	0.031905	3.3267						
-23.500	3.2905	0.063810	3.3251						
-23.490	3.2889	-0.11167	3.3251						
-23.480	3.2937	0.12762	3.3283						
-23.470	3.2953	0.20739	3.3299						
-23.460	3.2937	-0.047858	3.3331						
-23.450	3.2969	5.0000e-07	3.3379						
-23.440	3.2953	-1.0000e-06	3.3347						
-23.430	3.2921	-1.0000e-06	3.3315						
-23.420	3.2953	-0.031907	3.3331						
-23.410	3.2937	0.063809	3.3315						
-23.400	3.2969	0.031905	3.3299						
-23.390	3.2953	0.17548	3.3331						
-23.380	3.2953	-5.0000e-07	3.3331						
-23.370	3.2985	0.12762	3.3299						
-23.360	3.3001	0.047858	3.3315						
-23.350	3.2985	-1.5000e-06	3.3315						
-23.340	3.3001	-0.063811	3.3283						
-23.330	3.2969	0.11167	3.3331						
-23.320	3.2985	0.14357	3.3315						
-23.310	3.3001	0.19143	3.3315						
-23.300	3.3049	0.20739	3.3331						
-23.290	3.3081	0.20739	3.3363						
-23.280	3.3065	0.063811	3.3363						
-23.270	3.3081	0.031905	3.3363						
-23.260	3.3081	0.12762	3.3363						
-23.250	3.3081	0.11167	3.3363						
-23.240	3.3113	0.20739	3.3395						
-23.230	3.3129	0.047860	3.3458						
-23.220	3.3145	0.11167	3.3442						
-23.210	3.3161	0.079765	3.3474						
-23.200	3.3113	0.031906	3.3522						
-23.190	3.3161	-0.047858	3.3554						
-23.180	3.3161	0.23929	3.3586						
-23.170	3.3161	0.063812	3.3602						
-23.160	3.3177	0.14357	3.3618						
-23.150	3.3208	0.20739	3.3634						
-23.140	3.3208	0.20739	3.3650						
-23.130	3.3240	0.015953	3.3586						
-23.120	3.3256	0.19143	3.3618						
-23.110	3.3256	0.095716	3.3618						
-23.100	3.3240	0.063809	3.3618						
-23.090	3.3288	0.12762	3.3634						
-23.080	3.3288	0.27119	3.3634						
-23.070	3.3304	0.12762	3.3634						
-23.060	3.3336	0.12762	3.3618						
-23.050	3.3352	0.17548	3.3650						
-23.040	3.3352	-0.015954	3.3666						
-23.030	3.3352	0.11167	3.3634						
-23.020	3.3368	0.12762	3.3650						
-23.010	3.3352	0.23929	3.3666						
-23.000	3.3416	0.15953	3.3650						
-22.990	3.3432	0.33500	3.3634						
-22.980	3.3464	0.12762	3.3618						
-22.970	3.3464	0.063810	3.3618						
-22.960	3.3480	-0.015953	3.3618						
-22.950	3.3464	-0.063812	3.3618						
-22.940	3.3448	-0.079765	3.3666						
-22.930	3.3448	-0.015955	3.3714						
-22.920	3.3432	-0.095717	3.3698						
-22.910	3.3448	-1.5000e-06	3.3746						
-22.900	3.3448	0.031905	3.3746						
-22.890	3.3416	-0.047858	3.3730						
-22.880	3.3448	-0.11167	3.3746						
-22.870	3.3432	-0.047858	3.3746						
-22.860	3.3416	-0.11167	3.3761						
-22.850	3.3400	-0.095717	3.3730						
-22.840	3.3384	-0.015951	3.3714						
-22.830	3.3400	0.015953	3.3746						
-22.820	3.3400	0.095717	3.3730						
-22.810	3.3416	0.015954	3.3730						
-22.800	3.3416	0.015953	3.3746						
-22.790	3.3416	-0.12762	3.3714						
-22.780	3.3400	-0.15953	3.3746						
-22.770	3.3384	-0.095716	3.3746						
-22.760	3.3352	-0.047860	3.3761						
-22.750	3.3352	0.079763	3.3746						
-22.740	3.3384	0.079764	3.3746						
-22.730	3.3400	0.27120	3.3761						
-22.720	3.3432	0.12762	3.3793						
-22.710	3.3416	0.14358	3.3793						
-22.700	3.3464	0.015955	3.3809						
-22.690	3.3448	0.28715	3.3793						
-22.680	3.3464	0.12762	3.3793						
-22.670	3.3480	0.33501	3.3841						
-22.660	3.3544	0.31905	3.3873						
-22.650	3.3559	0.28715	3.3921						
-22.640	3.3607	0.11167	3.3905						
-22.630	3.3607	0.095717	3.3905						
-22.620	3.3591	-0.031904	3.3953						
-22.610	3.3591	1.0000e-06	3.3937						
-22.600	3.3591	0.15953	3.3953						
-22.590	3.3607	0.23929	3.4001						
-22.580	3.3639	0.30310	3.4017						
-22.570	3.3687	0.25524	3.4033						
-22.560	3.3719	0.30310	3.4033						
-22.550	3.3735	0.19143	3.4049						
-22.540	3.3735	0.11167	3.4049						
-22.530	3.3767	0.079764	3.4065						
-22.520	3.3767	0.095716	3.4033						
-22.510	3.3767	-0.11167	3.4033						
-22.500	3.3767	-0.015953	3.4049						
-22.490	3.3751	-0.15953	3.4096						
-22.480	3.3719	-0.15953	3.4112						
-22.470	3.3735	-0.23929	3.4081						
-22.460	3.3687	0.015953	3.4065						
-22.450	3.3687	-0.11167	3.4017						
-22.440	3.3671	0.11167	3.4049						
-22.430	3.3719	0.17548	3.4081						
-22.420	3.3719	0.19143	3.4065						
-22.410	3.3751	0.031905	3.4096						
-22.400	3.3767	-0.047858	3.4096						
-22.390	3.3735	-0.079763	3.4128						
-22.380	3.3719	-0.17548	3.4128						
-22.370	3.3687	-0.015952	3.4144						
-22.360	3.3703	-0.063810	3.4128						
-22.350	3.3703	-0.079763	3.4144						
-22.340	3.3719	-0.031905	3.4176						
-22.330	3.3687	-0.063810	3.4160						
-22.320	3.3655	-0.031905	3.4192						
-22.310	3.3687	0.12762	3.4192						
-22.300	3.3687	0.23929	3.4192						
-22.290	3.3735	0.17548	3.4192						
-22.280	3.3767	0.27120	3.4208						
-22.270	3.3767	0.17548	3.4240						
-22.260	3.3783	5.0000e-07	3.4240						
-22.250	3.3799	0.14357	3.4288						
-22.240	3.3799	0.047860	3.4256						
-22.230	3.3783	-0.15953	3.4256						
-22.220	3.3815	0.015952	3.4288						
-22.210	3.3783	0.063810	3.4288						
-22.200	3.3751	0.015952	3.4272						
-22.190	3.3815	0.12762	3.4240						
-22.180	3.3815	0.30310	3.4224						
-22.170	3.3847	0.047857	3.4240						
-22.160	3.3863	0.095716	3.4256						
-22.150	3.3863	0.095716	3.4256						
-22.140	3.3847	0.079764	3.4224						
-22.130	3.3863	0.12762	3.4240						
-22.120	3.3894	0.11167	3.4304						
-22.110	3.3910	0.17548	3.4336						
-22.100	3.3926	0.12762	3.4352						
-22.090	3.3910	0.12762	3.4368						
-22.080	3.3942	0.063809	3.4384						
-22.070	3.3958	0.25524	3.4416						
-22.060	3.3974	0.23929	3.4463						
-22.050	3.3990	0.27119	3.4431						
-22.040	3.4038	0.28715	3.4447						
-22.030	3.4070	0.44667	3.4463						
-22.020	3.4102	0.25524	3.4463						
-22.010	3.4134	0.28715	3.4463						
-22.000	3.4182	0.20739	3.4479						
-21.990	3.4166	0.20739	3.4479						
-21.980	3.4198	0.031905	3.4511						
-21.970	3.4198	0.15953	3.4543						
-21.960	3.4214	0.015953	3.4591						
-21.950	3.4214	0.14357	3.4607						
-21.940	3.4229	0.22334	3.4607						
-21.930	3.4229	0.12762	3.4607						
-21.920	3.4277	0.14357	3.4575						
-21.910	3.4309	0.17548	3.4559						
-21.900	3.4277	-0.047857	3.4543						
-21.890	3.4293	-0.12762	3.4575						
-21.880	3.4277	5.0000e-07	3.4607						
-21.870	3.4245	-0.12762	3.4623						
-21.860	3.4261	-0.063810	3.4607						
-21.850	3.4261	0.047858	3.4623						
-21.840	3.4245	1.0000e-06	3.4655						
-21.830	3.4261	0.015954	3.4607						
-21.820	3.4261	-0.031904	3.4591						
-21.810	3.4261	-0.063811	3.4607						
-21.800	3.4261	0.015951	3.4607						
-21.790	3.4229	0.015952	3.4655						
-21.780	3.4245	0.11167	3.4655						
-21.770	3.4277	0.25524	3.4623						
-21.760	3.4293	0.27119	3.4591						
-21.750	3.4341	0.28715	3.4607						
-21.740	3.4357	0.11167	3.4639						
-21.730	3.4373	0.031905	3.4687						
-21.720	3.4389	0.12762	3.4703						
-21.710	3.4341	0.079764	3.4751						
-21.700	3.4373	0.17548	3.4782						
-21.690	3.4421	0.31905	3.4798						
-21.680	3.4437	0.33501	3.4798						
-21.670	3.4501	0.28715	3.4798						
-21.660	3.4501	0.36691	3.4798						
-21.650	3.4533	0.095717	3.4830						
-21.640	3.4564	0.22334	3.4862						
-21.630	3.4580	0.095716	3.4926						
-21.620	3.4564	0.17548	3.4974						
-21.610	3.4596	0.22334	3.5006						
-21.600	3.4596	0.25524	3.5038						
-21.590	3.4660	0.14357	3.5038						
-21.580	3.4692	0.25525	3.5070						
-21.570	3.4676	0.079765	3.5086						
-21.560	3.4676	0.015953	3.5117						
-21.550	3.4692	5.0000e-07	3.5117						
-21.540	3.4692	0.14357	3.5165						
-21.530	3.4708	0.31905	3.5133						
-21.520	3.4708	0.22334	3.5133						
-21.510	3.4772	0.25524	3.5101						
-21.500	3.4836	0.19143	3.5086						
-21.490	3.4804	0.15953	3.5054						
-21.480	3.4820	-0.047858	3.5038						
-21.470	3.4788	0.047858	3.5022						
-21.460	3.4820	-0.15953	3.5038						
-21.450	3.4820	0.047858	3.4990						
-21.440	3.4804	-0.015952	3.4990						
-21.430	3.4772	0.015952	3.4958						
-21.420	3.4804	0.079764	3.4942						
-21.410	3.4820	0.031906	3.4942						
-21.400	3.4836	0.079765	3.4942						
-21.390	3.4836	-0.047858	3.4958						
-21.380	3.4788	-0.14357	3.4974						
-21.370	3.4820	-0.063811	3.4990						
-21.360	3.4788	0.15953	3.5006						
-21.350	3.4788	0.063811	3.5022						
-21.340	3.4836	0.095716	3.5022						
-21.330	3.4852	0.031905	3.5054						
-21.320	3.4852	-0.063810	3.5054						
-21.310	3.4820	-0.079765	3.5070						
-21.300	3.4788	-0.047860	3.5117						
-21.290	3.4804	-0.015955	3.5117						
-21.280	3.4820	0.063808	3.5133						
-21.270	3.4836	-0.031907	3.5165						
-21.260	3.4820	-0.015953	3.5165						
-21.250	3.4804	-0.063811	3.5245						
-21.240	3.4788	-0.079764	3.5245						
-21.230	3.4804	-0.047858	3.5277						
-21.220	3.4804	5.0000e-07	3.5293						
-21.210	3.4788	-1.0000e-06	3.5293						
-21.200	3.4788	-0.047860	3.5309						
-21.190	3.4788	0.079764	3.5309						
-21.180	3.4804	0.14357	3.5309						
-21.170	3.4804	0.095716	3.5373						
-21.160	3.4836	0.079764	3.5373						
-21.150	3.4852	0.14357	3.5341						
-21.140	3.4836	0.12762	3.5341						
-21.130	3.4852	-5.0000e-07	3.5341						
-21.120	3.4868	0.095716	3.5373						
-21.110	3.4884	0.063811	3.5357						
-21.100	3.4868	0.14358	3.5357						
-21.090	3.4884	0.11167	3.5357						
-21.080	3.4899	0.33501	3.5357						
-21.070	3.4947	0.41477	3.5341						
-21.060	3.4979	0.33501	3.5373						
-21.050	3.5043	0.27120	3.5405						
-21.040	3.5075	0.35096	3.5405						
-21.030	3.5059	0.25524	3.5405						
-21.020	3.5091	0.19143	3.5421						
-21.010	3.5139	0.39882	3.5436						
-21.000	3.5171	0.35096	3.5436						
-20.990	3.5203	0.36691	3.5452						
-20.980	3.5250	0.31905	3.5468						
-20.970	3.5266	0.33501	3.5436						
-20.960	3.5314	0.28715	3.5468						
-20.950	3.5330	0.30310	3.5516						
-20.940	3.5362	0.20739	3.5500						
-20.930	3.5394	0.33501	3.5500						
-20.920	3.5410	0.43072	3.5548						
-20.910	3.5442	0.28715	3.5580						
-20.900	3.5506	0.30310	3.5564						
-20.890	3.5554	0.30310	3.5644						
-20.880	3.5538	0.14357	3.5644						
-20.870	3.5554	0.12762	3.5660						
-20.860	3.5569	0.33501	3.5660						
-20.850	3.5585	0.31905	3.5644						
-20.840	3.5649	0.23929	3.5708						
-20.830	3.5697	0.25524	3.5724						
-20.820	3.5697	0.063812	3.5740						
-20.810	3.5681	0.047857	3.5740						
-20.800	3.5681	0.079763	3.5787						
-20.790	3.5681	0.14357	3.5787						
-20.780	3.5729	0.12762	3.5771						
-20.770	3.5745	0.095716	3.5787						
-20.760	3.5745	-0.11167	3.5787						
-20.750	3.5729	-0.079765	3.5819						
-20.740	3.5697	-0.079765	3.5851						
-20.730	3.5681	0.031904	3.5867						
-20.720	3.5713	0.079763	3.5851						
-20.710	3.5729	0.27119	3.5867						
-20.700	3.5761	0.11167	3.5915						
-20.690	3.5761	0.20739	3.5915						
-20.680	3.5793	0.095716	3.5963						
-20.670	3.5777	1.5000e-06	3.5995						
-20.660	3.5809	-0.063810	3.6011						
-20.650	3.5793	0.12762	3.5995						
-20.640	3.5761	0.079764	3.5995						
-20.630	3.5793	0.19143	3.6011						
-20.620	3.5841	0.36691	3.6027						
-20.610	3.5873	0.17548	3.6059						
-20.600	3.5905	0.063812	3.6059						
-20.590	3.5905	-0.031905	3.6138						
-20.580	3.5857	-0.063810	3.6170						
-20.570	3.5857	-0.031904	3.6186						
-20.560	3.5857	0.17548	3.6218						
-20.550	3.5889	0.14357	3.6234						
-20.540	3.5920	0.17548	3.6266						
-20.530	3.5936	-0.015952	3.6330						
-20.520	3.5920	-0.12762	3.6346						
-20.510	3.5905	-0.25524	3.6346						
-20.500	3.5857	-0.14357	3.6346						
-20.490	3.5841	-0.23929	3.6330						
-20.480	3.5825	-0.14357	3.6346						
-20.470	3.5841	0.015952	3.6346						
-20.460	3.5809	0.015953	3.6410						
-20.450	3.5809	-0.15953	3.6426						
-20.440	3.5841	-0.079764	3.6442						
-20.430	3.5809	-0.031906	3.6489						
-20.420	3.5777	-0.079764	3.6505						
-20.410	3.5777	-0.015955	3.6505						
-20.400	3.5793	0.19143	3.6473						
-20.390	3.5825	0.28715	3.6457						
-20.380	3.5841	0.28715	3.6489						
-20.370	3.5889	0.30310	3.6537						
-20.360	3.5920	0.28715	3.6553						
-20.350	3.5936	0.22334	3.6521						
-20.340	3.5968	0.095715	3.6521						
-20.330	3.5968	0.17548	3.6505						
-20.320	3.5984	0.17548	3.6521						
-20.310	3.5984	0.33501	3.6521						
-20.300	3.6032	0.27120	3.6505						
-20.290	3.6080	0.33501	3.6537						
-20.280	3.6128	0.35096	3.6521						
-20.270	3.6128	0.14357	3.6537						
-20.260	3.6144	0.17548	3.6505						
-20.250	3.6176	0.23929	3.6537						
-20.240	3.6160	0.22334	3.6521						
-20.230	3.6224	0.12762	3.6537						
-20.220	3.6240	0.15953	3.6521						
-20.210	3.6240	0.063811	3.6537						
-20.200	3.6240	0.047858	3.6585						
-20.190	3.6224	0.079763	3.6569						
-20.180	3.6255	0.095716	3.6569						
-20.170	3.6271	0.19143	3.6537						
-20.160	3.6287	0.17548	3.6521						
-20.150	3.6303	0.19143	3.6569						
-20.140	3.6319	0.28715	3.6585						
-20.130	3.6351	0.31905	3.6601						
-20.120	3.6383	0.25524	3.6585						
-20.110	3.6431	0.12762	3.6617						
-20.100	3.6447	0.23929	3.6665						
-20.090	3.6431	0.20738	3.6649						
-20.080	3.6431	0.11167	3.6649						
-20.070	3.6495	0.28715	3.6681						
-20.060	3.6527	0.23929	3.6697						
-20.050	3.6527	0.095717	3.6745						
-20.040	3.6559	0.079764	3.6761						
-20.030	3.6527	0.079765	3.6745						
-20.020	3.6543	0.19143	3.6777						
-20.010	3.6575	0.28715	3.6792						
-20.000	3.6590	0.31906	3.6856						
-19.990	3.6670	0.25525	3.6920						
-19.980	3.6670	0.19143	3.6936						
-19.970	3.6686	0.063810	3.6952						
-19.960	3.6686	0.15953	3.6984						
-19.950	3.6670	0.19143	3.7016						
-19.940	3.6718	0.063810	3.7016						
-19.930	3.6750	0.17548	3.7032						
-19.920	3.6766	0.12762	3.7064						
-19.910	3.6734	0.12762	3.7080						
-19.900	3.6750	0.079764	3.7096						
-19.890	3.6782	0.22334	3.7143						
-19.880	3.6814	0.22334	3.7223						
-19.870	3.6830	0.23929	3.7239						
-19.860	3.6846	0.22334	3.7271						
-19.850	3.6862	0.12762	3.7255						
-19.840	3.6894	0.12762	3.7303						
-19.830	3.6910	0.20738	3.7367						
-19.820	3.6894	-0.031905	3.7383						
-19.810	3.6910	-0.031907	3.7415						
-19.800	3.6925	-0.031907	3.7431						
-19.790	3.6878	-0.047859	3.7431						
-19.780	3.6894	-0.031905	3.7447						
-19.770	3.6878	0.079764	3.7478						
-19.760	3.6894	0.031906	3.7542						
-19.750	3.6925	-0.015952	3.7574						
-19.740	3.6910	0.14357	3.7622						
-19.730	3.6910	0.063810	3.7654						
-19.720	3.6894	0.14357	3.7686						
-19.710	3.6957	0.22334	3.7686						
-19.700	3.6973	0.17548	3.7718						
-19.690	3.6989	0.015953	3.7734						
-19.680	3.7005	0.079765	3.7750						
-19.670	3.6957	5.0000e-07	3.7782						
-19.660	3.6973	0.015953	3.7813						
-19.650	3.7005	0.22334	3.7861						
-19.640	3.7005	0.33501	3.7845						
-19.630	3.7053	0.23929	3.7845						
-19.620	3.7085	0.38287	3.7813						
-19.610	3.7133	0.38287	3.7813						
-19.600	3.7149	0.43072	3.7813						
-19.590	3.7197	0.28715	3.7797						
-19.580	3.7245	0.33501	3.7829						
-19.570	3.7276	0.19143	3.7845						
-19.560	3.7276	0.19143	3.7797						
-19.550	3.7292	0.15953	3.7750						
-19.540	3.7292	0.28715	3.7750						
-19.530	3.7340	0.19143	3.7750						
-19.520	3.7372	0.23929	3.7750						
-19.510	3.7404	0.047858	3.7782						
-19.500	3.7388	0.19143	3.7766						
-19.490	3.7388	0.14357	3.7766						
-19.480	3.7388	0.27120	3.7750						
-19.470	3.7468	0.30310	3.7750						
-19.460	3.7500	0.41477	3.7734						
-19.450	3.7532	0.27119	3.7702						
-19.440	3.7548	0.12762	3.7686						
-19.430	3.7564	0.15953	3.7654						
-19.420	3.7580	0.079764	3.7734						
-19.410	3.7564	0.031907	3.7782						
-19.400	3.7595	-0.015952	3.7766						
-19.390	3.7580	0.12762	3.7813						
-19.380	3.7580	0.031904	3.7797						
-19.370	3.7595	0.28715	3.7797						
-19.360	3.7627	0.38286	3.7813						
-19.350	3.7659	0.38286	3.7893						
-19.340	3.7739	0.36691	3.7893						
-19.330	3.7771	0.47858	3.7909						
-19.320	3.7787	0.28715	3.7909						
-19.310	3.7819	0.33501	3.7941						
-19.300	3.7867	0.22334	3.8021						
-19.290	3.7883	0.19143	3.8069						
-19.280	3.7915	-0.015954	3.8101						
-19.270	3.7883	0.015952	3.8117						
-19.260	3.7883	-0.015952	3.8148						
-19.250	3.7867	0.14357	3.8196						
-19.240	3.7899	0.36691	3.8260						
-19.230	3.7946	0.39882	3.8308						
-19.220	3.7994	0.44668	3.8340						
-19.210	3.8074	0.46263	3.8340						
-19.200	3.8074	0.44668	3.8372						
-19.190	3.8122	0.31906	3.8388						
-19.180	3.8170	0.49454	3.8404						
-19.170	3.8202	0.33501	3.8436						
-19.160	3.8250	0.11167	3.8483						
-19.150	3.8281	0.095717	3.8483						
-19.140	3.8250	0.015954	3.8563						
-19.130	3.8218	-0.11167	3.8611						
-19.120	3.8234	0.047858	3.8691						
-19.110	3.8250	0.20739	3.8707						
-19.100	3.8266	0.43072	3.8675						
-19.090	3.8313	0.46263	3.8723						
-19.080	3.8361	0.54239	3.8739						
-19.070	3.8457	0.51049	3.8755						
-19.060	3.8489	0.39882	3.8787						
-19.050	3.8521	0.19143	3.8803						
-19.040	3.8537	0.063809	3.8850						
-19.030	3.8521	0.14357	3.8866						
-19.020	3.8537	0.17548	3.8882						
-19.010	3.8537	0.22334	3.8898						
-19.000	3.8601	0.20739	3.8930						
-18.990	3.8632	0.30310	3.8930						
-18.980	3.8632	0.15953	3.8978						
-18.970	3.8648	0.14358	3.8994						
-18.960	3.8664	0.17548	3.8994						
-18.950	3.8680	0.20739	3.9010						
-18.940	3.8712	0.25524	3.9010						
-18.930	3.8728	0.28715	3.8994						
-18.920	3.8760	0.20738	3.8978						
-18.910	3.8792	0.22334	3.9026						
-18.900	3.8808	0.031905	3.9042						
-18.890	3.8808	0.015955	3.8994						
-18.880	3.8808	0.047859	3.9010						
-18.870	3.8776	0.095718	3.9010						
-18.860	3.8808	0.015955	3.9026						
-18.850	3.8840	0.27120	3.9058						
-18.840	3.8856	0.27120	3.9058						
-18.830	3.8856	0.12762	3.9106						
-18.820	3.8904	0.11167	3.9106						
-18.810	3.8920	0.19143	3.9138						
-18.800	3.8904	0.095715	3.9138						
-18.790	3.8920	0.031904	3.9153						
-18.780	3.8936	0.23929	3.9169						
-18.770	3.8951	0.15953	3.9185						
-18.760	3.8967	0.23929	3.9233						
-18.750	3.9015	0.30310	3.9249						
-18.740	3.9015	0.27119	3.9249						
-18.730	3.9063	0.15953	3.9297						
-18.720	3.9095	0.39882	3.9313						
-18.710	3.9095	0.27119	3.9345						
-18.700	3.9127	0.22334	3.9393						
-18.690	3.9191	0.23929	3.9425						
-18.680	3.9191	0.19143	3.9441						
-18.670	3.9207	0.12762	3.9504						
-18.660	3.9207	0.33501	3.9536						
-18.650	3.9223	0.30310	3.9520						
-18.640	3.9286	0.27120	3.9536						
-18.630	3.9350	0.27120	3.9536						
-18.620	3.9350	0.15953	3.9552						
-18.610	3.9334	0.031905	3.9568						
-18.600	3.9334	0.11167	3.9600						
-18.590	3.9350	0.15953	3.9648						
-18.580	3.9382	0.19143	3.9680						
-18.570	3.9414	0.14357	3.9712						
-18.560	3.9414	0.031905	3.9712						
-18.550	3.9414	-0.063811	3.9744						
-18.540	3.9398	-0.095716	3.9760						
-18.530	3.9382	1.2408e-13	3.9760						
-18.520	3.9382	-0.047858	3.9776						
-18.510	3.9382	0.079764	3.9760						
-18.500	3.9414	0.095716	3.9776						
-18.490	3.9398	0.20738	3.9792						
-18.480	3.9430	0.14357	3.9808						
-18.470	3.9446	0.23929	3.9792						
-18.460	3.9478	0.11167	3.9792						
-18.450	3.9494	0.063811	3.9823						
-18.440	3.9494	0.015953	3.9855						
-18.430	3.9478	0.11167	3.9887						
-18.420	3.9478	0.22334	3.9903						
-18.410	3.9510	0.28715	3.9871						
-18.400	3.9574	0.38287	3.9855						
-18.390	3.9621	0.44668	3.9871						
-18.380	3.9637	0.23929	3.9871						
-18.370	3.9669	0.25524	3.9887						
-18.360	3.9701	0.38287	3.9935						
-18.350	3.9701	0.25524	3.9967						
-18.340	3.9765	0.33501	3.9999						
-18.330	3.9813	0.41477	4.0015						
-18.320	3.9813	0.33501	4.0015						
-18.310	3.9877	0.27120	4.0031						
-18.300	3.9893	0.36691	4.0015						
-18.290	3.9925	0.20739	4.0047						
-18.280	3.9956	0.25524	4.0079						
-18.270	3.9972	0.23929	4.0111						
-18.260	3.9988	0.27120	4.0127						
-18.250	4.0020	0.31905	4.0174						
-18.240	4.0052	0.33501	4.0158						
-18.230	4.0100	0.31906	4.0174						
-18.220	4.0132	0.25524	4.0206						
-18.210	4.0148	0.17548	4.0270						
-18.200	4.0164	0.15953	4.0302						
-18.190	4.0164	0.063813	4.0318						
-18.180	4.0180	0.015953	4.0398						
-18.170	4.0196	0.17548	4.0430						
-18.160	4.0180	0.095715	4.0446						
-18.150	4.0196	0.17548	4.0446						
-18.140	4.0244	0.25524	4.0478						
-18.130	4.0244	0.17548	4.0509						
-18.120	4.0292	0.12762	4.0557						
-18.110	4.0292	0.12762	4.0589						
-18.100	4.0276	0.095716	4.0653						
-18.090	4.0307	0.17548	4.0669						
-18.080	4.0307	0.20739	4.0685						
-18.070	4.0355	0.23929	4.0701						
-18.060	4.0387	0.27119	4.0733						
-18.050	4.0387	0.33501	4.0781						
-18.040	4.0435	0.25524	4.0828						
-18.030	4.0451	0.36691	4.0844						
-18.020	4.0515	0.31905	4.0860						
-18.010	4.0531	0.36691	4.0908						
-18.000	4.0563	0.19143	4.0988						
-17.990	4.0595	0.27119	4.1004						
-17.980	4.0611	0.30310	4.1004						
-17.970	4.0627	0.28715	4.1020						
-17.960	4.0674	0.44667	4.1020						
-17.950	4.0722	0.57430	4.1068						
-17.940	4.0770	0.47858	4.1068						
-17.930	4.0850	0.52644	4.1116						
-17.920	4.0898	0.43072	4.1164						
-17.910	4.0914	0.30310	4.1179						
-17.900	4.0962	0.27119	4.1179						
-17.890	4.0962	0.23929	4.1227						
-17.880	4.0993	0.17548	4.1243						
-17.870	4.1025	0.20738	4.1291						
-17.860	4.1025	0.33501	4.1323						
-17.850	4.1057	0.031905	4.1323						
-17.840	4.1073	0.22334	4.1387						
-17.830	4.1121	0.20739	4.1419						
-17.820	4.1073	0.25524	4.1435						
-17.810	4.1137	0.20739	4.1419						
-17.800	4.1169	0.36691	4.1419						
-17.790	4.1201	0.31905	4.1451						
-17.780	4.1249	0.33501	4.1451						
-17.770	4.1249	0.36691	4.1467						
-17.760	4.1297	0.11167	4.1514						
-17.750	4.1328	0.15953	4.1530						
-17.740	4.1344	0.17548	4.1562						
-17.730	4.1312	0.11167	4.1578						
-17.720	4.1328	0.095717	4.1578						
-17.710	4.1376	0.28715	4.1610						
-17.700	4.1392	0.30310	4.1658						
-17.690	4.1424	0.25524	4.1674						
-17.680	4.1456	0.28715	4.1706						
-17.670	4.1472	0.20739	4.1706						
-17.660	4.1504	0.079765	4.1722						
-17.650	4.1520	0.35096	4.1722						
-17.640	4.1520	0.27120	4.1706						
-17.630	4.1536	0.22334	4.1722						
-17.620	4.1632	0.25524	4.1754						
-17.610	4.1632	0.22334	4.1786						
-17.600	4.1632	5.0000e-07	4.1818						
-17.590	4.1632	0.11167	4.1881						
-17.580	4.1616	0.11167	4.1913						
-17.570	4.1647	-0.095716	4.1977						
-17.560	4.1679	0.11167	4.1993						
-17.550	4.1663	0.095717	4.2009						
-17.540	4.1616	-0.063809	4.2073						
-17.530	4.1663	0.047858	4.2057						
-17.520	4.1679	0.28715	4.2089						
-17.510	4.1679	0.28715	4.2137						
-17.500	4.1727	0.23929	4.2153						
-17.490	4.1759	0.38287	4.2169						
-17.480	4.1807	0.38287	4.2216						
-17.470	4.1823	0.41477	4.2264						
-17.460	4.1871	0.28715	4.2312						
-17.450	4.1919	0.38286	4.2344						
-17.440	4.1951	0.41477	4.2360						
-17.430	4.1967	0.31905	4.2392						
-17.420	4.2014	0.27120	4.2440						
-17.410	4.2062	0.41477	4.2488						
-17.400	4.2078	0.44668	4.2519						
-17.390	4.2110	0.28715	4.2504						
-17.380	4.2174	0.41477	4.2504						
-17.370	4.2222	0.60620	4.2519						
-17.360	4.2238	0.63811	4.2567						
-17.350	4.2317	0.55834	4.2583						
-17.340	4.2413	0.54239	4.2615						
-17.330	4.2477	0.49453	4.2663						
-17.320	4.2493	0.44667	4.2679						
-17.310	4.2493	0.17548	4.2711						
-17.300	4.2541	0.095716	4.2727						
-17.290	4.2589	0.20739	4.2759						
-17.280	4.2557	0.17548	4.2759						
-17.270	4.2557	0.031907	4.2791						
-17.260	4.2589	0.31905	4.2775						
-17.250	4.2621	0.35096	4.2823						
-17.240	4.2652	0.22334	4.2902						
-17.230	4.2716	0.28715	4.2934						
-17.220	4.2716	0.38287	4.2950						
-17.210	4.2716	0.33501	4.2998						
-17.200	4.2780	0.44668	4.2998						
-17.190	4.2844	0.60620	4.3030						
-17.180	4.2908	0.46263	4.3094						
-17.170	4.2956	0.39882	4.3110						
-17.160	4.2988	0.17548	4.3110						
-17.150	4.2988	0.095717	4.3126						
-17.140	4.3003	0.20738	4.3142						
-17.130	4.2988	0.15953	4.3205						
-17.120	4.3019	0.095716	4.3221						
-17.110	4.3083	0.25524	4.3221						
-17.100	4.3067	0.38286	4.3301						
-17.090	4.3083	0.23929	4.3333						
-17.080	4.3131	0.38286	4.3397						
-17.070	4.3195	0.41477	4.3429						
-17.060	4.3227	0.39882	4.3477						
-17.050	4.3259	0.12762	4.3509						
-17.040	4.3275	0.22334	4.3493						
-17.030	4.3291	0.25525	4.3525						
-17.020	4.3275	0.19143	4.3572						
-17.010	4.3338	0.063812	4.3604						
-17.000	4.3370	0.17548	4.3636						
-16.990	4.3354	0.11167	4.3700						
-16.980	4.3338	0.11167	4.3716						
-16.970	4.3354	0.20739	4.3780						
-16.960	4.3402	0.30310	4.3796						
-16.950	4.3450	0.44668	4.3844						
-16.940	4.3482	0.46263	4.3860						
-16.930	4.3514	0.39882	4.3891						
-16.920	4.3578	0.44668	4.3939						
-16.910	4.3626	0.49453	4.3955						
-16.900	4.3658	0.39882	4.3939						
-16.890	4.3705	0.28715	4.3987						
-16.880	4.3737	0.25524	4.3987						
-16.870	4.3753	0.095716	4.4019						
-16.860	4.3753	-0.063810	4.4035						
-16.850	4.3753	0.079763	4.4067						
-16.840	4.3737	0.23929	4.4099						
-16.830	4.3737	0.15953	4.4163						
-16.820	4.3817	0.23929	4.4195						
-16.810	4.3865	0.35096	4.4210						
-16.800	4.3849	0.19143	4.4210						
-16.790	4.3865	0.031907	4.4226						
-16.780	4.3881	0.19143	4.4258						
-16.770	4.3897	0.28715	4.4242						
-16.760	4.3913	0.28715	4.4290						
-16.750	4.3961	0.33501	4.4322						
-16.740	4.4008	0.19143	4.4338						
-16.730	4.4024	0.22334	4.4354						
-16.720	4.4040	0.12762	4.4386						
-16.710	4.4008	0.11167	4.4434						
-16.700	4.4056	0.079764	4.4434						
-16.690	4.4072	0.30310	4.4450						
-16.680	4.4088	0.28715	4.4498						
-16.670	4.4120	0.47858	4.4498						
-16.660	4.4168	0.47858	4.4545						
-16.650	4.4232	0.54239	4.4545						
-16.640	4.4312	0.36691	4.4593						
-16.630	4.4328	0.33501	4.4593						
-16.620	4.4359	0.25524	4.4609						
-16.610	4.4343	0.35096	4.4609						
-16.600	4.4391	0.31905	4.4673						
-16.590	4.4455	0.47858	4.4657						
-16.580	4.4503	0.33501	4.4689						
-16.570	4.4535	0.20739	4.4753						
-16.560	4.4551	0.17548	4.4753						
-16.550	4.4535	0.079764	4.4769						
-16.540	4.4551	0.20739	4.4785						
-16.530	4.4583	0.20739	4.4833						
-16.520	4.4599	0.33501	4.4849						
-16.510	4.4663	0.36691	4.4865						
-16.500	4.4663	0.44667	4.4960						
-16.490	4.4726	0.33501	4.4976						
-16.480	4.4774	0.43072	4.5008						
-16.470	4.4806	0.27120	4.5040						
-16.460	4.4838	0.35096	4.5104						
-16.450	4.4854	0.25525	4.5152						
-16.440	4.4870	0.23929	4.5168						
-16.430	4.4934	0.27120	4.5200						
-16.420	4.4934	0.35096	4.5247						
-16.410	4.4966	0.23929	4.5327						
-16.400	4.4998	0.30310	4.5375						
-16.390	4.5029	0.25525	4.5439						
-16.380	4.5061	0.27120	4.5487						
-16.370	4.5077	0.22334	4.5503						
-16.360	4.5093	0.19143	4.5566						
-16.350	4.5125	0.23929	4.5614						
-16.340	4.5141	0.33501	4.5646						
-16.330	4.5173	0.49453	4.5646						
-16.320	4.5221	0.43072	4.5662						
-16.310	4.5285	0.51049	4.5726						
-16.300	4.5364	0.47858	4.5710						
-16.290	4.5364	0.31905	4.5742						
-16.280	4.5412	0.19143	4.5790						
-16.270	4.5428	0.35096	4.5854						
-16.260	4.5428	0.12762	4.5838						
-16.250	4.5476	0.17548	4.5870						
-16.240	4.5508	0.35096	4.5901						
-16.230	4.5492	0.25524	4.5949						
-16.220	4.5540	0.20739	4.5981						
-16.210	4.5588	0.36691	4.6029						
-16.200	4.5604	0.31905	4.6061						
-16.190	4.5636	0.27119	4.6109						
-16.180	4.5668	0.41477	4.6109						
-16.170	4.5699	0.38286	4.6141						
-16.160	4.5747	0.44667	4.6157						
-16.150	4.5811	0.54239	4.6205						
-16.140	4.5843	0.60620	4.6252						
-16.130	4.5907	0.43072	4.6316						
-16.120	4.5971	0.41477	4.6364						
-16.110	4.6019	0.33501	4.6412						
-16.100	4.6019	0.25524	4.6476						
-16.090	4.6034	0.33501	4.6540						
-16.080	4.6066	0.36691	4.6571						
-16.070	4.6114	0.36691	4.6603						
-16.060	4.6194	0.51049	4.6635						
-16.050	4.6210	0.57430	4.6635						
-16.040	4.6242	0.36691	4.6667						
-16.030	4.6322	0.39882	4.6683						
-16.020	4.6369	0.47858	4.6715						
-16.010	4.6385	0.36691	4.6715						
-16.000	4.6417	0.39882	4.6747						
-15.990	4.6465	0.49453	4.6779						
-15.980	4.6513	0.38287	4.6859						
-15.970	4.6577	0.30310	4.6843						
-15.960	4.6609	0.30310	4.6843						
-15.950	4.6593	0.17548	4.6859						
-15.940	4.6609	0.063810	4.6906						
-15.930	4.6641	0.22334	4.6938						
-15.920	4.6657	0.31905	4.6986						
-15.910	4.6673	0.25524	4.6970						
-15.900	4.6720	0.47858	4.6986						
-15.890	4.6768	0.39882	4.7034						
-15.880	4.6800	0.35096	4.7050						
-15.870	4.6880	0.35096	4.7066						
-15.860	4.6864	0.41477	4.7082						
-15.850	4.6896	0.17548	4.7130						
-15.840	4.6944	0.30310	4.7162						
-15.830	4.6976	0.36691	4.7194						
-15.820	4.6992	0.33501	4.7162						
-15.810	4.7024	0.27119	4.7162						
-15.800	4.7071	0.33501	4.7194						
-15.790	4.7103	0.23929	4.7194						
-15.780	4.7119	0.38286	4.7210						
-15.770	4.7151	0.38286	4.7305						
-15.760	4.7167	0.39882	4.7369						
-15.750	4.7263	0.35096	4.7433						
-15.740	4.7295	0.41477	4.7449						
-15.730	4.7311	0.22334	4.7465						
-15.720	4.7327	0.19143	4.7497						
-15.710	4.7343	0.30310	4.7576						
-15.700	4.7374	0.20739	4.7656						
-15.690	4.7406	0.31905	4.7672						
-15.680	4.7454	0.39882	4.7720						
-15.670	4.7454	0.44668	4.7768						
-15.660	4.7518	0.43073	4.7848						
-15.650	4.7582	0.51049	4.7927						
-15.640	4.7630	0.41477	4.7959						
-15.630	4.7678	0.46263	4.8007						
-15.620	4.7694	0.33501	4.8103						
-15.610	4.7725	0.28715	4.8167						
-15.600	4.7789	0.28715	4.8215						
-15.590	4.7789	0.35096	4.8231						
-15.580	4.7821	0.079764	4.8262						
-15.570	4.7837	0.30310	4.8278						
-15.560	4.7869	0.33501	4.8294						
-15.550	4.7869	0.38287	4.8278						
-15.540	4.7949	0.36691	4.8326						
-15.530	4.7997	0.49453	4.8374						
-15.520	4.8029	0.27120	4.8422						
-15.510	4.8060	0.19143	4.8438						
-15.500	4.8076	0.27120	4.8438						
-15.490	4.8076	0.31905	4.8470						
-15.480	4.8108	0.28715	4.8470						
-15.470	4.8172	0.41477	4.8486						
-15.460	4.8220	0.35096	4.8486						
-15.450	4.8236	0.23929	4.8486						
-15.440	4.8268	0.25524	4.8534						
-15.430	4.8268	0.31905	4.8582						
-15.420	4.8300	0.36691	4.8613						
-15.410	4.8364	0.47858	4.8661						
-15.400	4.8411	0.60620	4.8709						
-15.390	4.8475	0.47858	4.8757						
-15.380	4.8523	0.59025	4.8789						
-15.370	4.8587	0.59025	4.8869						
-15.360	4.8619	0.46263	4.8996						
-15.350	4.8699	0.39882	4.9028						
-15.340	4.8746	0.49453	4.9092						
-15.330	4.8746	0.28715	4.9156						
-15.320	4.8794	0.43072	4.9204						
-15.310	4.8842	0.60620	4.9236						
-15.300	4.8874	0.52644	4.9252						
-15.290	4.8986	0.47858	4.9252						
-15.280	4.9034	0.57430	4.9283						
-15.270	4.9050	0.28715	4.9379						
-15.260	4.9081	0.23929	4.9443						
-15.250	4.9113	0.38287	4.9491						
-15.240	4.9129	0.43072	4.9507						
-15.230	4.9177	0.25524	4.9523						
-15.220	4.9241	0.36691	4.9602						
-15.210	4.9273	0.30310	4.9666						
-15.200	4.9257	0.28715	4.9666						
-15.190	4.9305	0.47858	4.9714						
-15.180	4.9337	0.54239	4.9746						
-15.170	4.9416	0.27120	4.9762						
-15.160	4.9512	0.57430	4.9762						
-15.150	4.9496	0.47858	4.9810						
-15.140	4.9480	0.095716	4.9794						
-15.130	4.9592	0.31905	4.9810						
-15.120	4.9608	0.55834	4.9842						
-15.110	4.9608	0.38286	4.9890						
-15.100	4.9688	0.41477	4.9953						
-15.090	4.9735	0.63811	5.0017						
-15.080	4.9799	0.52644	5.0081						
-15.070	4.9847	0.57430	5.0065						
-15.060	4.9911	0.57429	5.0097						
-15.050	4.9959	0.59025	5.0129						
-15.040	5.0023	0.52644	5.0193						
-15.030	5.0086	0.60620	5.0209						
-15.020	5.0134	0.54239	5.0193						
-15.010	5.0182	0.49453	5.0209						
-15.000	5.0246	0.38286	5.0272						
-14.990	5.0278	0.28715	5.0336						
-14.980	5.0310	0.27119	5.0384						
-14.970	5.0310	0.33501	5.0416						
-14.960	5.0326	0.20738	5.0448						
-14.950	5.0390	0.39882	5.0528						
-14.940	5.0437	0.59025	5.0592						
-14.930	5.0453	0.47858	5.0608						
-14.920	5.0533	0.39882	5.0655						
-14.910	5.0597	0.39882	5.0719						
-14.900	5.0613	0.30310	5.0767						
-14.890	5.0629	0.11167	5.0799						
-14.880	5.0629	0.23929	5.0831						
-14.870	5.0661	0.23929	5.0911						
-14.860	5.0677	0.39882	5.0990						
-14.850	5.0741	0.33501	5.1054						
-14.840	5.0772	0.39882	5.1102						
-14.830	5.0820	0.31906	5.1182						
-14.820	5.0836	0.39882	5.1246						
-14.810	5.0868	0.43072	5.1309						
-14.800	5.0916	0.46263	5.1373						
-14.790	5.0980	0.49453	5.1389						
-14.780	5.1044	0.55835	5.1405						
-14.770	5.1076	0.54239	5.1421						
-14.760	5.1123	0.46263	5.1485						
-14.750	5.1187	0.38287	5.1501						
-14.740	5.1235	0.49453	5.1501						
-14.730	5.1267	0.51049	5.1549						
-14.720	5.1283	0.30310	5.1597						
-14.710	5.1363	0.33501	5.1613						
-14.700	5.1411	0.38287	5.1660						
-14.690	5.1395	0.38287	5.1724						
-14.680	5.1442	0.35096	5.1772						
-14.670	5.1474	0.49453	5.1788						
-14.660	5.1554	0.31905	5.1820						
-14.650	5.1602	0.46263	5.1852						
-14.640	5.1618	0.33501	5.1900						
-14.630	5.1618	0.28715	5.1916						
-14.620	5.1682	0.27120	5.1963						
-14.610	5.1714	0.35096	5.1948						
-14.600	5.1746	0.17548	5.1963						
-14.590	5.1761	0.44667	5.1995						
-14.580	5.1777	0.33500	5.2043						
-14.570	5.1809	0.33500	5.2139						
-14.560	5.1921	0.47858	5.2139						
-14.550	5.1921	0.59025	5.2171						
-14.540	5.1953	0.20738	5.2251						
-14.530	5.2017	0.30310	5.2298						
-14.520	5.2049	0.44667	5.2362						
-14.510	5.2049	0.44668	5.2458						
-14.500	5.2096	0.38286	5.2490						
-14.490	5.2176	0.55834	5.2490						
-14.480	5.2240	0.62215	5.2506						
-14.470	5.2272	0.62215	5.2586						
-14.460	5.2336	0.46262	5.2633						
-14.450	5.2400	0.51048	5.2649						
-14.440	5.2463	0.49453	5.2713						
-14.430	5.2479	0.52644	5.2745						
-14.420	5.2527	0.52644	5.2777						
-14.410	5.2591	0.67001	5.2873						
-14.400	5.2671	0.76573	5.2905						
-14.390	5.2751	0.44668	5.2969						
-14.380	5.2814	0.51049	5.3032						
-14.370	5.2862	0.60620	5.3048						
-14.360	5.2830	0.59025	5.3128						
-14.350	5.2942	0.59025	5.3208						
-14.340	5.3054	0.81359	5.3288						
-14.330	5.3117	0.57430	5.3319						
-14.320	5.3181	0.63811	5.3319						
-14.310	5.3197	0.46263	5.3319						
-14.300	5.3229	0.43073	5.3351						
-14.290	5.3341	0.43072	5.3479						
-14.280	5.3341	0.36691	5.3575						
-14.270	5.3389	1.5000e-06	5.3591						
-14.260	5.3389	0.36691	5.3623						
-14.250	5.3373	0.39882	5.3670						
-14.240	5.3405	0.41477	5.3686						
-14.230	5.3532	0.54239	5.3766						
-14.220	5.3596	0.54239	5.3814						
-14.210	5.3612	0.28715	5.3862						
-14.200	5.3628	0.14357	5.3926						
-14.190	5.3628	0.28715	5.4021						
-14.180	5.3660	0.27119	5.4101						
-14.170	5.3692	0.38286	5.4149						
-14.160	5.3756	0.17548	5.4197						
-14.150	5.3772	0.17548	5.4229						
-14.140	5.3787	0.28715	5.4261						
-14.130	5.3756	0.43072	5.4309						
-14.120	5.3803	0.19143	5.4404						
-14.110	5.3915	0.43072	5.4484						
-14.100	5.3963	0.65406	5.4564						
-14.090	5.3931	0.41477	5.4580						
-14.080	5.3995	0.27119	5.4612						
-14.070	5.4091	0.78168	5.4675						
-14.060	5.4122	0.60620	5.4707						
-14.050	5.4170	0.38287	5.4771						
-14.040	5.4282	0.46263	5.4835						
-14.030	5.4266	0.55835	5.4867						
-14.020	5.4298	0.30310	5.4899						
-14.010	5.4362	0.54239	5.4915						
-14.000	5.4426	0.82954	5.4947						
-13.990	5.4489	0.81359	5.4979						
-13.980	5.4585	0.89335	5.5010						
-13.970	5.4713	0.78168	5.5074						
-13.960	5.4777	0.89335	5.5090						
-13.950	5.4856	0.68597	5.5170						
-13.940	5.4888	0.70192	5.5218						
-13.930	5.5000	0.76573	5.5282						
-13.920	5.5064	0.90930	5.5314						
-13.910	5.5143	0.79764	5.5330						
-13.900	5.5255	0.70192	5.5345						
-13.890	5.5319	0.70192	5.5409						
-13.880	5.5383	0.73382	5.5473						
-13.870	5.5415	0.62216	5.5489						
-13.860	5.5494	0.70192	5.5553						
-13.850	5.5606	0.60620	5.5617						
-13.840	5.5638	0.63811	5.5649						
-13.830	5.5718	0.54239	5.5712						
-13.820	5.5718	0.57430	5.5840						
-13.810	5.5798	0.47858	5.5872						
-13.800	5.5877	0.51049	5.5920						
-13.790	5.5909	0.47858	5.5952						
-13.780	5.5957	0.25524	5.5984						
-13.770	5.5957	0.35096	5.6047						
-13.760	5.6005	0.30310	5.6111						
-13.750	5.6021	0.46263	5.6127						
-13.740	5.6085	0.43072	5.6159						
-13.730	5.6133	0.41477	5.6191						
-13.720	5.6180	0.28715	5.6207						
-13.710	5.6212	0.38286	5.6239						
-13.700	5.6212	0.36691	5.6319						
-13.690	5.6244	0.38286	5.6335						
-13.680	5.6324	0.47858	5.6382						
-13.670	5.6372	0.51049	5.6446						
-13.660	5.6420	0.33501	5.6462						
-13.650	5.6452	0.57430	5.6510						
-13.640	5.6483	0.60620	5.6574						
-13.630	5.6531	0.44667	5.6606						
-13.620	5.6659	0.63811	5.6622						
-13.610	5.6707	0.74978	5.6701						
-13.600	5.6707	0.43072	5.6781						
-13.590	5.6803	0.30310	5.6829						
-13.580	5.6850	0.55834	5.6893						
-13.570	5.6866	0.51049	5.6909						
-13.560	5.6898	0.47858	5.6957						
-13.550	5.6978	0.59025	5.7005						
-13.540	5.7058	0.54239	5.7084						
-13.530	5.7106	0.51049	5.7180						
-13.520	5.7154	0.65406	5.7276						
-13.510	5.7169	0.47858	5.7324						
-13.500	5.7249	0.52644	5.7419						
-13.490	5.7361	0.73383	5.7515						
-13.480	5.7361	0.60620	5.7547						
-13.470	5.7441	0.35096	5.7627						
-13.460	5.7504	0.60620	5.7691						
-13.450	5.7520	0.43073	5.7754						
-13.440	5.7568	0.33501	5.7802						
-13.430	5.7632	0.49454	5.7866						
-13.420	5.7648	0.49453	5.7914						
-13.410	5.7696	0.28715	5.7962						
-13.400	5.7760	0.47858	5.8010						
-13.390	5.7792	0.52644	5.8089						
-13.380	5.7808	0.36691	5.8121						
-13.370	5.7887	0.39882	5.8153						
-13.360	5.7935	0.47858	5.8233						
-13.350	5.7951	0.35096	5.8313						
-13.340	5.7999	0.44668	5.8361						
-13.330	5.8031	0.43072	5.8376						
-13.320	5.8079	0.44668	5.8424						
-13.310	5.8159	0.55834	5.8504						
-13.300	5.8174	0.51049	5.8520						
-13.290	5.8238	0.43072	5.8568						
-13.280	5.8302	0.68597	5.8632						
-13.270	5.8334	0.59025	5.8664						
-13.260	5.8414	0.67001	5.8791						
-13.250	5.8509	0.90930	5.8855						
-13.240	5.8557	0.79764	5.8903						
-13.230	5.8669	0.71787	5.8967						
-13.220	5.8765	0.71787	5.8967						
-13.210	5.8797	0.59025	5.9031						
-13.200	5.8860	0.51049	5.9094						
-13.190	5.8892	0.60620	5.9158						
-13.180	5.8956	0.62216	5.9190						
-13.170	5.9036	0.57430	5.9318						
-13.160	5.9100	0.57430	5.9366						
-13.150	5.9164	0.59025	5.9366						
-13.140	5.9179	0.55835	5.9397						
-13.130	5.9243	0.49453	5.9445						
-13.120	5.9323	0.51049	5.9477						
-13.110	5.9371	0.65406	5.9557						
-13.100	5.9419	0.54239	5.9605						
-13.090	5.9451	0.44668	5.9637						
-13.080	5.9546	0.43072	5.9701						
-13.070	5.9578	0.54239	5.9732						
-13.060	5.9594	0.36691	5.9748						
-13.050	5.9642	0.27119	5.9796						
-13.040	5.9690	0.39882	5.9844						
-13.030	5.9722	0.41477	5.9924						
-13.020	5.9738	0.43072	6.0036						
-13.010	5.9802	0.63811	6.0067						
-13.000	5.9865	0.74978	6.0131						
-12.990	5.9945	0.71787	6.0163						
-12.980	6.0057	0.65406	6.0243						
-12.970	6.0105	0.74978	6.0259						
-12.960	6.0153	0.60620	6.0307						
-12.950	6.0200	0.57430	6.0402						
-12.940	6.0296	0.62216	6.0482						
-12.930	6.0360	0.81359	6.0562						
-12.920	6.0408	0.68597	6.0626						
-12.910	6.0488	0.57430	6.0674						
-12.900	6.0583	0.76573	6.0722						
-12.890	6.0631	0.81359	6.0801						
-12.880	6.0679	0.62216	6.0897						
-12.870	6.0791	0.79763	6.0993						
-12.860	6.0870	0.70192	6.1041						
-12.850	6.0918	0.70192	6.1152						
-12.840	6.1014	0.70192	6.1264						
-12.830	6.1030	0.74978	6.1280						
-12.820	6.1142	0.59025	6.1328						
-12.810	6.1221	0.70192	6.1407						
-12.800	6.1269	0.52644	6.1423						
-12.790	6.1317	0.41477	6.1471						
-12.780	6.1349	0.55834	6.1583						
-12.770	6.1397	0.68597	6.1663						
-12.760	6.1461	0.76573	6.1758						
-12.750	6.1572	0.68596	6.1822						
-12.740	6.1668	0.65406	6.1918						
-12.730	6.1716	0.62215	6.2014						
-12.720	6.1732	0.54239	6.2046						
-12.710	6.1780	0.63811	6.2093						
-12.700	6.1876	0.65406	6.2157						
-12.690	6.1955	0.63811	6.2237						
-12.680	6.2035	0.57430	6.2317						
-12.670	6.2051	0.46263	6.2428						
-12.660	6.2083	0.47858	6.2524						
-12.650	6.2147	0.52644	6.2540						
-12.640	6.2195	0.63811	6.2588						
-12.630	6.2290	0.70192	6.2636						
-12.620	6.2338	0.81359	6.2700						
-12.610	6.2418	0.70192	6.2779						
-12.600	6.2514	0.87740	6.2891						
-12.590	6.2593	0.97312	6.3003						
-12.580	6.2673	0.86145	6.3051						
-12.570	6.2785	0.74978	6.3083						
-12.560	6.2881	0.76573	6.3098						
-12.550	6.2928	0.89335	6.3178						
-12.540	6.2976	0.81359	6.3210						
-12.530	6.3072	0.74978	6.3258						
-12.520	6.3216	0.81359	6.3354						
-12.510	6.3279	0.79764	6.3418						
-12.500	6.3311	0.70192	6.3529						
-12.490	6.3375	0.65406	6.3593						
-12.480	6.3455	0.76573	6.3625						
-12.470	6.3566	0.87740	6.3625						
-12.460	6.3630	0.87740	6.3689						
-12.450	6.3710	0.78168	6.3753						
-12.440	6.3806	0.68597	6.3816						
-12.430	6.3870	0.51049	6.3928						
-12.420	6.3933	0.63811	6.4008						
-12.410	6.3949	0.57430	6.4119						
-12.400	6.3981	0.41477	6.4183						
-12.390	6.4109	0.59025	6.4215						
-12.380	6.4141	0.73382	6.4263						
-12.370	6.4173	0.44668	6.4375						
-12.360	6.4252	0.43072	6.4486						
-12.350	6.4300	0.51049	6.4566						
-12.340	6.4332	0.38286	6.4630						
-12.330	6.4364	0.44668	6.4694						
-12.320	6.4412	0.52644	6.4805						
-12.310	6.4460	0.60620	6.4933						
-12.300	6.4540	0.43072	6.4933						
-12.290	6.4603	0.62216	6.4981						
-12.280	6.4651	0.76573	6.5061						
-12.270	6.4667	0.76573	6.5156						
-12.260	6.4795	0.73382	6.5220						
-12.250	6.4922	0.79763	6.5268						
-12.240	6.4986	0.95716	6.5316						
-12.230	6.5034	0.79764	6.5380						
-12.220	6.5082	0.63811	6.5444						
-12.210	6.5242	0.81359	6.5475						
-12.200	6.5305	0.97312	6.5555						
-12.190	6.5337	0.60620	6.5635						
-12.180	6.5449	0.60620	6.5715						
-12.170	6.5513	0.86144	6.5779						
-12.160	6.5561	1.0050	6.5842						
-12.150	6.5656	0.84549	6.5906						
-12.140	6.5784	0.92526	6.5970						
-12.130	6.5927	0.89335	6.6018						
-12.120	6.5943	0.79763	6.6066						
-12.110	6.6007	0.38286	6.6129						
-12.100	6.6071	0.79763	6.6257						
-12.090	6.6135	0.74978	6.6305						
-12.080	6.6183	0.62215	6.6353						
-12.070	6.6326	0.54239	6.6417						
-12.060	6.6358	0.73382	6.6496						
-12.050	6.6374	0.47858	6.6624						
-12.040	6.6422	0.25524	6.6736						
-12.030	6.6502	0.60620	6.6815						
-12.020	6.6550	0.78168	6.6863						
-12.010	6.6550	0.54239	6.6959						
-12.000	6.6693	0.44668	6.7071						
-11.990	6.6773	0.79763	6.7166						
-11.980	6.6773	0.60620	6.7230						
-11.970	6.6821	0.57430	6.7278						
-11.960	6.6917	0.62215	6.7342						
-11.950	6.6996	0.70192	6.7422						
-11.940	6.7076	0.84549	6.7517						
-11.930	6.7108	0.97312	6.7629						
-11.920	6.7204	0.95716	6.7677						
-11.910	6.7363	1.1645	6.7757						
-11.900	6.7491	1.1965	6.7868						
-11.890	6.7587	1.0210	6.7948						
-11.880	6.7682	0.79764	6.8012						
-11.870	6.7762	0.89335	6.8076						
-11.860	6.7842	0.87740	6.8108						
-11.850	6.7906	0.89335	6.8171						
-11.840	6.8033	0.98907	6.8235						
-11.830	6.8129	1.0688	6.8267						
-11.820	6.8225	0.76573	6.8379						
-11.810	6.8336	0.94121	6.8443						
-11.800	6.8400	1.0848	6.8490						
-11.790	6.8448	0.82954	6.8586						
-11.780	6.8608	0.73383	6.8698						
-11.770	6.8719	0.79764	6.8778						
-11.760	6.8735	0.57430	6.8889						
-11.750	6.8767	0.67001	6.8969						
-11.740	6.8815	0.67001	6.9049						
-11.730	6.8911	0.65406	6.9129						
-11.720	6.9054	0.73382	6.9272						
-11.710	6.9070	0.71787	6.9320						
-11.700	6.9102	0.39881	6.9352						
-11.690	6.9166	0.59025	6.9416						
-11.680	6.9230	0.78168	6.9511						
-11.670	6.9294	0.62215	6.9575						
-11.660	6.9389	0.60620	6.9751						
-11.650	6.9469	0.81359	6.9846						
-11.640	6.9485	0.82954	6.9910						
-11.630	6.9565	0.57430	6.9990						
-11.620	6.9692	0.78168	7.0054						
-11.610	6.9772	0.76573	7.0150						
-11.600	6.9788	0.60620	7.0229						
-11.590	6.9868	0.74978	7.0261						
-11.580	6.9932	0.97311	7.0357						
-11.570	7.0027	0.71787	7.0453						
-11.560	7.0171	0.84549	7.0532						
-11.550	7.0235	0.62216	7.0644						
-11.540	7.0235	0.54239	7.0740						
-11.530	7.0314	0.55835	7.0804						
-11.520	7.0330	0.79764	7.0820						
-11.510	7.0458	0.78168	7.0915						
-11.500	7.0554	0.86145	7.1011						
-11.490	7.0634	0.76573	7.1123						
-11.480	7.0713	0.70192	7.1218						
-11.470	7.0745	0.89335	7.1330						
-11.460	7.0841	0.89335	7.1394						
-11.450	7.0937	0.92526	7.1474						
-11.440	7.1080	0.81359	7.1585						
-11.430	7.1160	0.86145	7.1713						
-11.420	7.1192	0.84549	7.1809						
-11.410	7.1256	0.86145	7.1856						
-11.400	7.1367	0.92526	7.1920						
-11.390	7.1511	0.97312	7.2016						
-11.380	7.1607	1.1007	7.2080						
-11.370	7.1670	1.1645	7.2192						
-11.360	7.1766	1.0848	7.2255						
-11.350	7.1926	1.2284	7.2287						
-11.340	7.2085	1.1326	7.2367						
-11.330	7.2165	1.0688	7.2463						
-11.320	7.2261	0.84549	7.2558						
-11.310	7.2309	0.78168	7.2654						
-11.300	7.2420	0.82954	7.2734						
-11.290	7.2500	0.86145	7.2846						
-11.280	7.2564	0.76573	7.2925						
-11.270	7.2675	0.74978	7.2973						
-11.260	7.2723	0.78168	7.3037						
-11.250	7.2803	0.74978	7.3101						
-11.240	7.2883	0.92526	7.3181						
-11.230	7.2963	1.1167	7.3276						
-11.220	7.3090	1.1167	7.3372						
-11.210	7.3218	1.1326	7.3452						
-11.200	7.3361	1.1326	7.3532						
-11.190	7.3441	1.0529	7.3595						
-11.180	7.3521	0.86145	7.3675						
-11.170	7.3633	0.86145	7.3771						
-11.160	7.3712	0.86144	7.3867						
-11.150	7.3792	0.81359	7.3946						
-11.140	7.3872	0.97312	7.4042						
-11.130	7.3952	0.87740	7.4122						
-11.120	7.4063	0.94121	7.4233						
-11.110	7.4191	1.1965	7.4265						
-11.100	7.4255	1.1645	7.4345						
-11.090	7.4382	1.0848	7.4409						
-11.080	7.4542	1.1965	7.4473						
-11.070	7.4638	1.1486	7.4648						
-11.060	7.4749	1.1805	7.4696						
-11.050	7.4845	1.1326	7.4760						
-11.040	7.4957	1.0529	7.4856						
-11.030	7.5116	0.90931	7.4903						
-11.020	7.5180	0.87740	7.4983						
-11.010	7.5244	0.51049	7.5143						
-11.000	7.5276	0.57430	7.5254						
-10.990	7.5340	0.62216	7.5350						
-10.980	7.5387	0.73382	7.5446						
-10.970	7.5483	0.73383	7.5526						
-10.960	7.5579	1.0210	7.5637						
-10.950	7.5659	1.0688	7.5765						
-10.940	7.5754	0.90930	7.5877						
-10.930	7.5898	0.95716	7.5972						
-10.920	7.5994	1.0369	7.6068						
-10.910	7.6041	0.78168	7.6212						
-10.900	7.6137	0.76573	7.6323						
-10.890	7.6233	0.97312	7.6435						
-10.880	7.6297	0.94121	7.6594						
-10.870	7.6408	0.87740	7.6658						
-10.860	7.6520	0.94121	7.6786						
-10.850	7.6600	0.94121	7.6929						
-10.840	7.6680	0.73382	7.7009						
-10.830	7.6759	0.89335	7.7137						
-10.820	7.6855	0.94121	7.7217						
-10.810	7.6919	1.0848	7.7249						
-10.800	7.7062	1.0848	7.7344						
-10.790	7.7174	1.1486	7.7456						
-10.780	7.7302	0.97312	7.7584						
-10.770	7.7397	0.98907	7.7663						
-10.760	7.7461	0.78168	7.7743						
-10.750	7.7541	0.76573	7.7791						
-10.740	7.7637	0.94121	7.7871						
-10.730	7.7701	1.0529	7.7966						
-10.720	7.7812	0.81359	7.8062						
-10.710	7.7940	1.0050	7.8158						
-10.700	7.8036	0.90930	7.8238						
-10.690	7.8067	0.73382	7.8317						
-10.680	7.8179	0.81359	7.8381						
-10.670	7.8243	0.89335	7.8493						
-10.660	7.8323	0.73382	7.8636						
-10.650	7.8450	0.89335	7.8732						
-10.640	7.8498	1.0529	7.8812						
-10.630	7.8578	0.79763	7.8924						
-10.620	7.8706	0.92526	7.9083						
-10.610	7.8817	1.0848	7.9211						
-10.600	7.8881	1.1645	7.9290						
-10.590	7.8993	1.1645	7.9402						
-10.580	7.9136	1.3241	7.9466						
-10.570	7.9296	1.3081	7.9610						
-10.560	7.9423	1.2284	7.9673						
-10.550	7.9535	1.1805	7.9817						
-10.540	7.9631	1.2284	7.9929						
-10.530	7.9743	1.0210	8.0040						
-10.520	7.9886	1.2124	8.0136						
-10.510	8.0014	1.2124	8.0232						
-10.500	8.0078	1.1965	8.0343						
-10.490	8.0237	1.1965	8.0471						
-10.480	8.0349	1.4198	8.0551						
-10.470	8.0492	1.1805	8.0646						
-10.460	8.0636	1.1805	8.0710						
-10.450	8.0748	1.1805	8.0806						
-10.440	8.0827	1.1805	8.0918						
-10.430	8.0939	1.1645	8.1013						
-10.420	8.1083	1.2762	8.1093						
-10.410	8.1226	1.1805	8.1205						
-10.400	8.1338	0.90930	8.1332						
-10.390	8.1434	0.84549	8.1444						
-10.380	8.1481	0.87740	8.1572						
-10.370	8.1529	0.89335	8.1620						
-10.360	8.1657	0.97311	8.1763						
-10.350	8.1784	1.0529	8.1875						
-10.340	8.1896	0.92526	8.1939						
-10.330	8.1976	1.0050	8.2050						
-10.320	8.2040	1.0050	8.2162						
-10.310	8.2135	1.0848	8.2242						
-10.300	8.2295	1.3241	8.2385						
-10.290	8.2423	1.2762	8.2449						
-10.280	8.2550	0.92526	8.2561						
-10.270	8.2678	1.1007	8.2688						
-10.260	8.2726	1.2284	8.2768						
-10.250	8.2789	0.94121	8.2912						
-10.240	8.2981	1.0210	8.3039						
-10.230	8.3124	1.2922	8.3151						
-10.220	8.3172	1.0210	8.3247						
-10.210	8.3268	1.0529	8.3342						
-10.200	8.3396	1.2284	8.3454						
-10.190	8.3507	1.3081	8.3566						
-10.180	8.3683	1.1965	8.3677						
-10.170	8.3795	1.2603	8.3821						
-10.160	8.3906	1.2284	8.3933						
-10.150	8.4002	1.1805	8.4060						
-10.140	8.4130	1.1965	8.4220						
-10.130	8.4289	1.1965	8.4347						
-10.120	8.4385	1.1007	8.4475						
-10.110	8.4496	0.97312	8.4587						
-10.100	8.4576	0.90930	8.4667						
-10.090	8.4656	0.89335	8.4794						
-10.080	8.4768	1.0848	8.4954						
-10.070	8.4847	1.0848	8.5049						
-10.060	8.4975	1.0369	8.5209						
-10.050	8.5119	1.2124	8.5337						
-10.040	8.5198	1.1486	8.5480						
-10.030	8.5310	1.0210	8.5608						
-10.020	8.5438	1.1486	8.5767						
-10.010	8.5533	1.0688	8.5911						
-10.000	8.5645	1.0050	8.6023						
-9.9900	8.5757	1.0369	8.6166						
-9.9800	8.5836	1.1007	8.6278						
-9.9700	8.5948	1.0369	8.6373						
-9.9600	8.6060	1.0688	8.6501						
-9.9500	8.6187	1.1167	8.6597						
-9.9400	8.6283	1.1167	8.6708						
-9.9300	8.6379	1.0848	8.6804						
-9.9200	8.6506	1.1486	8.6916						
-9.9100	8.6618	1.2603	8.7075						
-9.9000	8.6746	1.1965	8.7219						
-9.8900	8.6873	1.2603	8.7363						
-9.8800	8.7001	1.2124	8.7458						
-9.8700	8.7113	1.2443	8.7570						
-9.8600	8.7240	1.0848	8.7666						
-9.8500	8.7352	1.2762	8.7761						
-9.8400	8.7480	1.3081	8.7873						
-9.8300	8.7575	1.1965	8.8001						
-9.8200	8.7751	1.1805	8.8080						
-9.8100	8.7878	1.4198	8.8192						
-9.8000	8.7958	1.2922	8.8336						
-9.7900	8.8102	1.1805	8.8463						
-9.7800	8.8261	1.3560	8.8559						
-9.7700	8.8389	1.4198	8.8719						
-9.7600	8.8501	1.3560	8.8862						
-9.7500	8.8644	1.4357	8.9006						
-9.7400	8.8804	1.3560	8.9101						
-9.7300	8.8947	1.3241	8.9245						
-9.7200	8.9091	1.3241	8.9373						
-9.7100	8.9171	1.1486	8.9516						
-9.7000	8.9298	1.1645	8.9596						
-9.6900	8.9442	1.3560	8.9724						
-9.6800	8.9537	1.4996	8.9883						
-9.6700	8.9713	1.4677	9.0011						
-9.6600	8.9872	1.6272	9.0138						
-9.6500	9.0048	1.3879	9.0250						
-9.6400	9.0192	1.5315	9.0362						
-9.6300	9.0319	1.5634	9.0505						
-9.6200	9.0431	1.4836	9.0649						
-9.6100	9.0638	1.3560	9.0729						
-9.6000	9.0814	1.6431	9.0824						
-9.5900	9.0925	1.5793	9.0952						
-9.5800	9.1037	1.3081	9.1095						
-9.5700	9.1228	1.4357	9.1207						
-9.5600	9.1388	1.3879	9.1287						
-9.5500	9.1484	1.1965	9.1383						
-9.5400	9.1627	1.2603	9.1526						
-9.5300	9.1707	1.4996	9.1670						
-9.5200	9.1851	1.4676	9.1829						
-9.5100	9.2058	1.6112	9.1925						
-9.5000	9.2233	1.5634	9.2069						
-9.4900	9.2377	1.3241	9.2212						
-9.4800	9.2489	1.1965	9.2340						
-9.4700	9.2584	1.1486	9.2499						
-9.4600	9.2696	1.1486	9.2627						
-9.4500	9.2824	1.1645	9.2723						
-9.4400	9.2951	1.1007	9.2834						
-9.4300	9.3063	1.1326	9.2994						
-9.4200	9.3159	1.1486	9.3137						
-9.4100	9.3254	1.3081	9.3313						
-9.4000	9.3398	1.0848	9.3456						
-9.3900	9.3542	1.1805	9.3552						
-9.3800	9.3685	1.1805	9.3696						
-9.3700	9.3717	1.1007	9.3855						
-9.3600	9.3845	1.2443	9.4015						
-9.3500	9.3988	1.5474	9.4158						
-9.3400	9.4132	1.4996	9.4270						
-9.3300	9.4355	1.4836	9.4398						
-9.3200	9.4483	1.5634	9.4525						
-9.3100	9.4594	1.4517	9.4669						
-9.3000	9.4738	1.4676	9.4812						
-9.2900	9.4898	1.5953	9.4940						
-9.2800	9.5089	1.5155	9.5036						
-9.2700	9.5233	1.4996	9.5163						
-9.2600	9.5376	1.4357	9.5323						
-9.2500	9.5488	1.3719	9.5482						
-9.2400	9.5631	1.2443	9.5626						
-9.2300	9.5791	1.3400	9.5706						
-9.2200	9.5903	1.4038	9.5865						
-9.2100	9.6014	1.1326	9.6025						
-9.2000	9.6158	1.3719	9.6200						
-9.1900	9.6301	1.3879	9.6360						
-9.1800	9.6397	1.3560	9.6503						
-9.1700	9.6589	1.3081	9.6647						
-9.1600	9.6700	1.3879	9.6807						
-9.1500	9.6828	1.1007	9.6966						
-9.1400	9.6955	1.2922	9.7157						
-9.1300	9.7051	1.1965	9.7317						
-9.1200	9.7163	1.0369	9.7461						
-9.1100	9.7322	1.0688	9.7588						
-9.1000	9.7402	1.1486	9.7764						
-9.0900	9.7482	0.97311	9.7907						
-9.0800	9.7594	1.1326	9.8051						
-9.0700	9.7721	1.3560	9.8178						
-9.0600	9.7849	1.3560	9.8338						
-9.0500	9.8008	1.4676	9.8466						
-9.0400	9.8168	1.5634	9.8625						
-9.0300	9.8296	1.5953	9.8817						
-9.0200	9.8471	1.4836	9.8944						
-9.0100	9.8631	1.5953	9.9072						
-9.0000	9.8790	1.4517	9.9183						
-8.9900	9.8918	1.2762	9.9327						
-8.9800	9.9061	1.3879	9.9471						
-8.9700	9.9173	1.3719	9.9582						
-8.9600	9.9285	1.2443	9.9694						
-8.9500	9.9476	1.3241	9.9838						
-8.9400	9.9588	1.3879	9.9997						
-8.9300	9.9699	1.2762	10.014						
-8.9200	9.9843	1.4357	10.027						
-8.9100	9.9971	1.4996	10.044						
-8.9000	10.015	1.5953	10.059						
-8.8900	10.032	1.5953	10.075						
-8.8800	10.047	1.6591	10.094						
-8.8700	10.064	1.4517	10.110						
-8.8600	10.077	1.5155	10.123						
-8.8500	10.094	1.4517	10.142						
-8.8400	10.106	1.5315	10.158						
-8.8300	10.121	1.4038	10.174						
-8.8200	10.137	1.4676	10.190						
-8.8100	10.152	1.5315	10.204						
-8.8000	10.166	1.5793	10.218						
-8.7900	10.181	1.6910	10.239						
-8.7800	10.200	1.7229	10.255						
-8.7700	10.219	1.9143	10.272						
-8.7600	10.238	1.9143	10.290						
-8.7500	10.255	1.9462	10.312						
-8.7400	10.276	1.8505	10.324						
-8.7300	10.295	1.8505	10.338						
-8.7200	10.315	1.8505	10.355						
-8.7100	10.330	1.8984	10.373						
-8.7000	10.348	1.7229	10.391						
-8.6900	10.369	1.8346	10.405						
-8.6800	10.388	1.8027	10.419						
-8.6700	10.402	1.7867	10.437						
-8.6600	10.421	1.6431	10.454						
-8.6500	10.437	1.8186	10.469						
-8.6400	10.456	1.7069	10.485						
-8.6300	10.472	1.7229	10.494						
-8.6200	10.492	1.8346	10.505						
-8.6100	10.508	1.8346	10.525						
-8.6000	10.525	1.6431	10.542						
-8.5900	10.547	1.7708	10.553						
-8.5800	10.562	1.8824	10.572						
-8.5700	10.576	1.6272	10.590						
-8.5600	10.597	1.8027	10.606						
-8.5500	10.616	1.8665	10.617						
-8.5400	10.632	1.8186	10.635						
-8.5300	10.653	1.8186	10.652						
-8.5200	10.669	1.8824	10.675						
-8.5100	10.688	1.6910	10.690						
-8.5000	10.707	1.6750	10.703						
-8.4900	10.723	1.7548	10.721						
-8.4800	10.737	1.6272	10.738						
-8.4700	10.753	1.6750	10.754						
-8.4600	10.774	1.8346	10.772						
-8.4500	10.790	1.8027	10.793						
-8.4400	10.809	1.7388	10.813						
-8.4300	10.828	1.8186	10.831						
-8.4200	10.843	1.7069	10.856						
-8.4100	10.862	1.6591	10.879						
-8.4000	10.879	1.9781	10.898						
-8.3900	10.895	1.8984	10.915						
-8.3800	10.916	1.8186	10.930						
-8.3700	10.940	1.9622	10.949						
-8.3600	10.956	1.8665	10.968						
-8.3500	10.972	1.7229	10.990						
-8.3400	10.991	1.7229	11.011						
-8.3300	11.007	1.7708	11.022						
-8.3200	11.026	1.5953	11.035						
-8.3100	11.042	1.6591	11.053						
-8.3000	11.058	1.7388	11.070						
-8.2900	11.072	1.7708	11.092						
-8.2800	11.091	1.7548	11.112						
-8.2700	11.114	1.9462	11.129						
-8.2600	11.131	2.0100	11.150						
-8.2500	11.149	1.8027	11.169						
-8.2400	11.170	1.8505	11.182						
-8.2300	11.189	1.9303	11.203						
-8.2200	11.205	1.7069	11.220						
-8.2100	11.224	1.6431	11.234						
-8.2000	11.241	1.6910	11.249						
-8.1900	11.254	1.6750	11.266						
-8.1800	11.272	1.6910	11.289						
-8.1700	11.289	1.7707	11.301						
-8.1600	11.308	1.8186	11.321						
-8.1500	11.328	1.8186	11.338						
-8.1400	11.343	1.8186	11.352						
-8.1300	11.363	1.8027	11.378						
-8.1200	11.380	1.8505	11.394						
-8.1100	11.399	1.7867	11.415						
-8.1000	11.418	1.9462	11.437						
-8.0900	11.436	2.0260	11.455						
-8.0800	11.455	2.1217	11.472						
-8.0700	11.479	2.0100	11.491						
-8.0600	11.501	1.9143	11.509						
-8.0500	11.522	1.9303	11.526						
-8.0400	11.535	1.8505	11.550						
-8.0300	11.551	1.8505	11.568						
-8.0200	11.575	2.1217	11.585						
-8.0100	11.596	2.2174	11.605						
-8.0000	11.619	2.1217	11.632						
-7.9900	11.642	2.0100	11.652						
-7.9800	11.659	1.9303	11.670						
-7.9700	11.678	1.8824	11.695						
-7.9600	11.694	1.8346	11.716						
-7.9500	11.715	1.8984	11.739						
-7.9400	11.736	2.1217	11.766						
-7.9300	11.753	2.1536	11.783						
-7.9200	11.777	2.1855	11.809						
-7.9100	11.801	2.2812	11.831						
-7.9000	11.824	2.2174	11.855						
-7.8900	11.846	1.9781	11.873						
-7.8800	11.865	1.9303	11.895						
-7.8700	11.884	2.0419	11.914						
-7.8600	11.900	2.0579	11.935						
-7.8500	11.923	2.2334	11.959						
-7.8400	11.950	2.4567	11.983						
-7.8300	11.972	2.3610	12.007						
-7.8200	11.999	2.3450	12.027						
-7.8100	12.021	2.4886	12.050						
-7.8000	12.041	2.2015	12.069						
-7.7900	12.068	2.1696	12.094						
-7.7800	12.092	2.3131	12.115						
-7.7700	12.109	2.1696	12.134						
-7.7600	12.132	2.1377	12.155						
-7.7500	12.154	2.2653	12.172						
-7.7400	12.176	2.2334	12.192						
-7.7300	12.200	2.0419	12.217						
-7.7200	12.221	2.0419	12.236						
-7.7100	12.240	2.0738	12.255						
-7.7000	12.256	1.9303	12.275						
-7.6900	12.278	2.0419	12.298						
-7.6800	12.302	2.1536	12.322						
-7.6700	12.320	2.1058	12.351						
-7.6600	12.344	2.0898	12.375						
-7.6500	12.363	2.1536	12.397						
-7.6400	12.384	2.0898	12.413						
-7.6300	12.408	2.1536	12.436						
-7.6200	12.427	2.0898	12.461						
-7.6100	12.449	2.0738	12.480						
-7.6000	12.470	2.2493	12.501						
-7.5900	12.489	2.3291	12.523						
-7.5800	12.514	2.1696	12.547						
-7.5700	12.540	2.3929	12.574						
-7.5600	12.564	2.3291	12.598						
-7.5500	12.581	2.2493	12.622						
-7.5400	12.607	2.0898	12.648						
-7.5300	12.629	2.4089	12.670						
-7.5200	12.652	2.4089	12.694						
-7.5100	12.674	2.5205	12.718						
-7.5000	12.703	2.5843	12.740						
-7.4900	12.730	2.6960	12.767						
-7.4800	12.757	2.6801	12.790						
-7.4700	12.782	2.6322	12.815						
-7.4600	12.808	2.5365	12.838						
-7.4500	12.835	2.4089	12.858						
-7.4400	12.859	2.3929	12.884						
-7.4300	12.881	2.3131	12.909						
-7.4200	12.902	2.2493	12.930						
-7.4100	12.926	2.2812	12.956						
-7.4000	12.950	2.3131	12.983						
-7.3900	12.972	2.3131	13.004						
-7.3800	12.996	2.4727	13.026						
-7.3700	13.018	2.4089	13.045						
-7.3600	13.044	2.4408	13.067						
-7.3500	13.073	2.5046	13.093						
-7.3400	13.093	2.4727	13.117						
-7.3300	13.119	2.4089	13.141						
-7.3200	13.143	2.5046	13.166						
-7.3100	13.167	2.3770	13.192						
-7.3000	13.194	2.3291	13.217						
-7.2900	13.216	2.3610	13.233						
-7.2800	13.237	2.2653	13.257						
-7.2700	13.259	2.2015	13.278						
-7.2600	13.283	2.3610	13.302						
-7.2500	13.307	2.4727	13.329						
-7.2400	13.330	2.4248	13.355						
-7.2300	13.357	2.3770	13.382						
-7.2200	13.382	2.5524	13.407						
-7.2100	13.405	2.4567	13.436						
-7.2000	13.428	2.4248	13.460						
-7.1900	13.456	2.5205	13.487						
-7.1800	13.480	2.5524	13.514						
-7.1700	13.505	2.4567	13.544						
-7.1600	13.531	2.4248	13.573						
-7.1500	13.555	2.5046	13.597						
-7.1400	13.578	2.5843	13.618						
-7.1300	13.602	2.4886	13.645						
-7.1200	13.631	2.4886	13.667						
-7.1100	13.658	2.5365	13.693						
-7.1000	13.679	2.3770	13.718						
-7.0900	13.703	2.3770	13.747						
-7.0800	13.727	2.5205	13.773						
-7.0700	13.751	2.5524	13.800						
-7.0600	13.779	2.4248	13.828						
-7.0500	13.805	2.4886	13.854						
-7.0400	13.829	2.5365	13.879						
-7.0300	13.850	2.6481	13.903						
-7.0200	13.877	2.7439	13.932						
-7.0100	13.909	2.7439	13.956						
-7.0000	13.939	2.7917	13.983						
-6.9900	13.966	2.6801	14.005						
-6.9800	13.987	2.6162	14.028						
-6.9700	14.014	2.4408	14.050						
-6.9600	14.041	2.6801	14.071						
-6.9500	14.068	2.6481	14.098						
-6.9400	14.092	2.6801	14.127						
-6.9300	14.121	2.8555	14.152						
-6.9200	14.148	2.8715	14.183						
-6.9100	14.178	2.9353	14.206						
-6.9000	14.212	3.0789	14.232						
-6.8900	14.237	2.9672	14.261						
-6.8800	14.269	2.8236	14.289						
-6.8700	14.299	2.9991	14.317						
-6.8600	14.325	2.9034	14.340						
-6.8500	14.355	2.9034	14.369						
-6.8400	14.386	2.9512	14.401						
-6.8300	14.414	2.8715	14.428						
-6.8200	14.445	2.6162	14.458						
-6.8100	14.470	2.7917	14.487						
-6.8000	14.496	2.7758	14.513						
-6.7900	14.520	2.9832	14.548						
-6.7800	14.555	2.8236	14.586						
-6.7700	14.587	3.2065	14.615						
-6.7600	14.619	3.0789	14.650						
-6.7500	14.642	3.0789	14.682						
-6.7400	14.678	2.9991	14.709						
-6.7300	14.708	2.8236	14.741						
-6.7200	14.738	2.7917	14.774						
-6.7100	14.765	2.7120	14.809						
-6.7000	14.783	2.7917	14.843						
-6.6900	14.816	2.8077	14.873						
-6.6800	14.845	2.9672	14.904						
-6.6700	14.879	2.6960	14.932						
-6.6600	14.907	2.9672	14.961						
-6.6500	14.928	2.8715	14.990						
-6.6400	14.955	2.8236	15.017						
-6.6300	14.992	2.8874	15.046						
-6.6200	15.022	3.1905	15.069						
-6.6100	15.051	2.9991	15.100						
-6.6000	15.076	2.9991	15.132						
-6.5900	15.111	2.9672	15.162						
-6.5800	15.142	3.0948	15.186						
-6.5700	15.172	3.0151	15.216						
-6.5600	15.201	2.9991	15.247						
-6.5500	15.230	2.8874	15.274						
-6.5400	15.261	2.8236	15.302						
-6.5300	15.290	3.1746	15.330						
-6.5200	15.317	3.0948	15.357						
-6.5100	15.348	3.1905	15.384						
-6.5000	15.387	3.2065	15.411						
-6.4900	15.418	3.2065	15.440						
-6.4800	15.450	2.9991	15.470						
-6.4700	15.477	3.2224	15.502						
-6.4600	15.506	3.1427	15.540						
-6.4500	15.541	3.0310	15.570						
-6.4400	15.577	3.2224	15.601						
-6.4300	15.606	3.3022	15.634						
-6.4200	15.632	3.0470	15.665						
-6.4100	15.667	3.0470	15.695						
-6.4000	15.702	3.2224	15.724						
-6.3900	15.730	3.0948	15.749						
-6.3800	15.761	3.1746	15.779						
-6.3700	15.791	3.2224	15.819						
-6.3600	15.823	3.2224	15.846						
-6.3500	15.861	3.1746	15.875						
-6.3400	15.892	3.3820	15.910						
-6.3300	15.922	3.1746	15.944						
-6.3200	15.952	3.2544	15.972						
-6.3100	15.989	3.1108	16.006						
-6.3000	16.021	3.2384	16.043						
-6.2900	16.053	3.2544	16.079						
-6.2800	16.080	3.3501	16.108						
-6.2700	16.115	3.2863	16.141						
-6.2600	16.153	3.4458	16.177						
-6.2500	16.188	3.5894	16.208						
-6.2400	16.220	3.4139	16.248						
-6.2300	16.254	3.4777	16.282						
-6.2200	16.292	3.5575	16.319						
-6.2100	16.325	3.6213	16.360						
-6.2000	16.364	3.5415	16.403						
-6.1900	16.399	3.6532	16.440						
-6.1800	16.434	3.6053	16.480						
-6.1700	16.471	3.5734	16.508						
-6.1600	16.507	3.6372	16.550						
-6.1500	16.544	3.7648	16.593						
-6.1400	16.579	3.6691	16.633						
-6.1300	16.617	3.6372	16.671						
-6.1200	16.657	3.7010	16.709						
-6.1100	16.691	3.8127	16.748						
-6.1000	16.727	3.7170	16.784						
-6.0900	16.766	3.8286	16.821						
-6.0800	16.807	3.9403	16.866						
-6.0700	16.846	3.9244	16.899						
-6.0600	16.884	3.8127	16.931						
-6.0500	16.924	3.8925	16.971						
-6.0400	16.960	3.8127	17.001						
-6.0300	16.999	3.7489	17.038						
-6.0200	17.039	3.7648	17.076						
-6.0100	17.074	3.8446	17.108						
-6.0000	17.112	3.8606	17.147						
-5.9900	17.150	4.0041	17.186						
-5.9800	17.192	3.8446	17.223						
-5.9700	17.233	3.9563	17.263						
-5.9600	17.271	3.8127	17.298						
-5.9500	17.305	3.6213	17.332						
-5.9400	17.345	3.7170	17.370						
-5.9300	17.380	3.9084	17.407						
-5.9200	17.417	3.7329	17.450						
-5.9100	17.460	3.8127	17.486						
-5.9000	17.498	3.9403	17.525						
-5.8900	17.533	3.7329	17.564						
-5.8800	17.571	3.5575	17.603						
-5.8700	17.610	3.7967	17.643						
-5.8600	17.645	3.8446	17.684						
-5.8500	17.680	3.6532	17.724						
-5.8400	17.723	3.7648	17.767						
-5.8300	17.761	3.9244	17.810						
-5.8200	17.795	3.7489	17.850						
-5.8100	17.835	3.6691	17.890						
-5.8000	17.873	3.7967	17.923						
-5.7900	17.910	3.6851	17.960						
-5.7800	17.946	3.7170	18.000						
-5.7700	17.983	3.7489	18.040						
-5.7600	18.020	3.7808	18.083						
-5.7500	18.060	3.8446	18.123						
-5.7400	18.098	3.8446	18.164						
-5.7300	18.136	3.6691	18.206						
-5.7200	18.174	3.7170	18.239						
-5.7100	18.210	3.8446	18.279						
-5.7000	18.245	3.8446	18.321						
-5.6900	18.286	3.8925	18.359						
-5.6800	18.329	4.2115	18.392						
-5.6700	18.369	4.1317	18.432						
-5.6600	18.409	4.0360	18.477						
-5.6500	18.454	4.1477	18.520						
-5.6400	18.492	4.2753	18.557						
-5.6300	18.533	4.0839	18.597						
-5.6200	18.578	4.3710	18.640						
-5.6100	18.621	4.4349	18.684						
-5.6000	18.663	4.2115	18.735						
-5.5900	18.710	4.2594	18.783						
-5.5800	18.752	4.4508	18.822						
-5.5700	18.790	4.2115	18.858						
-5.5600	18.836	4.4029	18.903						
-5.5500	18.883	4.7220	18.948						
-5.5400	18.926	4.6103	18.986						
-5.5300	18.977	4.6263	19.027						
-5.5200	19.025	4.7858	19.074						
-5.5100	19.068	4.6103	19.118						
-5.5000	19.116	4.5306	19.160						
-5.4900	19.162	4.6741	19.204						
-5.4800	19.207	4.5784	19.247						
-5.4700	19.253	4.4029	19.297						
-5.4600	19.299	4.4668	19.337						
-5.4500	19.342	4.5465	19.378						
-5.4400	19.384	4.5625	19.429						
-5.4300	19.431	4.5625	19.477						
-5.4200	19.481	4.8815	19.520						
-5.4100	19.529	4.8177	19.565						
-5.4000	19.575	4.7699	19.608						
-5.3900	19.626	4.6103	19.653						
-5.3800	19.671	4.6582	19.702						
-5.3700	19.717	4.6582	19.755						
-5.3600	19.760	4.6422	19.801						
-5.3500	19.808	4.6263	19.847						
-5.3400	19.859	4.7858	19.897						
-5.3300	19.904	4.8815	19.948						
-5.3200	19.952	4.8337	19.997						
-5.3100	20.001	5.0091	20.045						
-5.3000	20.052	4.9294	20.096						
-5.2900	20.103	4.8975	20.146						
-5.2800	20.153	4.8018	20.201						
-5.2700	20.197	4.9294	20.251						
-5.2600	20.245	4.9613	20.299						
-5.2500	20.295	5.0411	20.345						
-5.2400	20.350	4.9772	20.393						
-5.2300	20.401	5.0091	20.444						
-5.2200	20.448	4.5784	20.495						
-5.2100	20.492	4.6263	20.544						
-5.2000	20.539	4.8177	20.591						
-5.1900	20.582	5.0570	20.640						
-5.1800	20.638	5.1208	20.691						
-5.1700	20.693	5.3761	20.741						
-5.1600	20.748	5.3761	20.793						
-5.1500	20.799	5.2803	20.848						
-5.1400	20.850	5.1049	20.899						
-5.1300	20.904	5.2006	20.945						
-5.1200	20.955	5.2325	20.997						
-5.1100	21.004	5.0570	21.050						
-5.1000	21.059	5.2644	21.101						
-5.0900	21.110	5.3761	21.157						
-5.0800	21.161	5.3282	21.211						
-5.0700	21.220	5.3282	21.259						
-5.0600	21.272	5.4239	21.313						
-5.0500	21.325	5.1049	21.369						
-5.0400	21.376	5.1368	21.419						
-5.0300	21.427	5.3122	21.467						
-5.0200	21.477	5.3761	21.522						
-5.0100	21.532	5.2963	21.575						
-5.0000	21.591	5.4080	21.628						
-4.9900	21.644	5.4399	21.683						
-4.9800	21.694	5.1846	21.736						
-4.9700	21.746	5.2165	21.789						
-4.9600	21.800	5.2644	21.838						
-4.9500	21.852	5.2644	21.896						
-4.9400	21.906	5.2325	21.951						
-4.9300	21.957	5.2963	22.009						
-4.9200	22.009	5.3920	22.063						
-4.9100	22.064	5.4399	22.114						
-4.9000	22.118	5.2325	22.168						
-4.8900	22.175	5.3442	22.218						
-4.8800	22.226	5.5834	22.271						
-4.8700	22.274	5.5834	22.328						
-4.8600	22.335	5.4718	22.382						
-4.8500	22.397	5.8706	22.440						
-4.8400	22.455	5.7111	22.499						
-4.8300	22.506	5.5515	22.559						
-4.8200	22.565	5.6632	22.617						
-4.8100	22.619	5.9344	22.673						
-4.8000	22.678	5.8227	22.730						
-4.7900	22.742	5.8706	22.787						
-4.7800	22.801	5.9185	22.853						
-4.7700	22.857	5.7430	22.913						
-4.7600	22.912	5.7908	22.971						
-4.7500	22.971	5.8387	23.020						
-4.7400	23.030	6.1258	23.081						
-4.7300	23.093	6.1577	23.143						
-4.7200	23.153	6.0461	23.204						
-4.7100	23.219	6.0301	23.268						
-4.7000	23.278	6.3013	23.328						
-4.6900	23.334	6.0939	23.394						
-4.6800	23.397	5.9344	23.457						
-4.6700	23.464	6.0939	23.521						
-4.6600	23.522	6.1896	23.582						
-4.6500	23.578	6.1099	23.646						
-4.6400	23.640	6.3651	23.708						
-4.6300	23.707	6.3651	23.767						
-4.6200	23.774	6.2375	23.829						
-4.6100	23.839	6.2056	23.890						
-4.6000	23.893	6.1737	23.952						
-4.5900	23.951	6.0461	24.014						
-4.5800	24.016	6.2216	24.075						
-4.5700	24.082	6.4130	24.135						
-4.5600	24.146	6.4130	24.199						
-4.5500	24.208	6.4768	24.271						
-4.5400	24.272	6.2854	24.336						
-4.5300	24.337	6.2216	24.397						
-4.5200	24.402	6.4130	24.459						
-4.5100	24.460	6.4130	24.521						
-4.5000	24.522	6.3332	24.582						
-4.4900	24.592	6.5566	24.643						
-4.4800	24.658	6.6363	24.708						
-4.4700	24.723	6.4927	24.770						
-4.4600	24.788	6.6842	24.839						
-4.4500	24.852	6.5725	24.903						
-4.4400	24.919	6.3970	24.970						
-4.4300	24.989	6.6044	25.038						
-4.4200	25.050	6.7001	25.105						
-4.4100	25.112	6.6204	25.174						
-4.4000	25.184	6.7799	25.244						
-4.3900	25.254	7.0032	25.313						
-4.3800	25.324	7.0670	25.380						
-4.3700	25.393	7.0670	25.451						
-4.3600	25.463	6.9713	25.520						
-4.3500	25.537	6.7959	25.581						
-4.3400	25.605	6.8756	25.651						
-4.3300	25.671	6.9394	25.719						
-4.3200	25.734	6.8278	25.790						
-4.3100	25.808	6.9554	25.861						
-4.3000	25.883	7.2106	25.933						
-4.2900	25.950	7.0511	26.007						
-4.2800	26.022	6.9075	26.077						
-4.2700	26.092	7.0830	26.149						
-4.2600	26.159	6.9235	26.220						
-4.2500	26.231	6.9873	26.291						
-4.2400	26.302	7.3701	26.362						
-4.2300	26.371	7.3861	26.434						
-4.2200	26.447	7.3063	26.506						
-4.2100	26.527	7.4021	26.583						
-4.2000	26.599	7.4818	26.653						
-4.1900	26.669	7.2106	26.721						
-4.1800	26.741	7.2266	26.793						
-4.1700	26.818	7.4021	26.868						
-4.1600	26.889	7.5297	26.945						
-4.1500	26.964	7.6573	27.023						
-4.1400	27.043	7.8806	27.096						
-4.1300	27.121	7.8009	27.173						
-4.1200	27.204	7.7530	27.248						
-4.1100	27.282	7.8009	27.324						
-4.1000	27.354	7.5775	27.401						
-4.0900	27.430	7.7371	27.476						
-4.0800	27.508	7.9604	27.552						
-4.0700	27.587	8.0242	27.632						
-4.0600	27.673	7.9285	27.712						
-4.0500	27.752	8.1359	27.792						
-4.0400	27.831	7.9444	27.873						
-4.0300	27.907	7.9125	27.951						
-4.0200	27.990	8.0242	28.031						
-4.0100	28.070	7.9923	28.111						
-4.0000	28.150	7.8487	28.192						
-3.9900	28.231	8.1678	28.278						
-3.9800	28.306	8.0880	28.363						
-3.9700	28.387	8.0242	28.443						
-3.9600	28.477	8.1199	28.526						
-3.9500	28.553	8.0561	28.612						
-3.9400	28.633	7.7371	28.690						
-3.9300	28.710	7.9604	28.776						
-3.9200	28.786	7.9604	28.864						
-3.9100	28.868	8.0561	28.947						
-3.9000	28.952	8.1997	29.033						
-3.8900	29.033	8.2635	29.117						
-3.8800	29.115	8.0402	29.200						
-3.8700	29.196	8.0880	29.283						
-3.8600	29.277	8.3114	29.361						
-3.8500	29.356	8.0880	29.446						
-3.8400	29.440	8.0083	29.524						
-3.8300	29.526	8.1199	29.609						
-3.8200	29.600	8.0561	29.687						
-3.8100	29.679	8.0402	29.765						
-3.8000	29.761	8.2795	29.843						
-3.7900	29.844	8.0880	29.923						
-3.7800	29.932	8.2475	30.003						
-3.7700	30.011	8.1997	30.083						
-3.7600	30.086	8.1678	30.162						
-3.7500	30.172	8.2316	30.242						
-3.7400	30.254	8.3433	30.323						
-3.7300	30.342	8.3273	30.403						
-3.7200	30.424	8.2954	30.483						
-3.7100	30.503	8.1997	30.568						
-3.7000	30.587	7.9444	30.642						
-3.6900	30.665	7.7849	30.727						
-3.6800	30.747	7.9604	30.808						
-3.6700	30.820	8.0242	30.888						
-3.6600	30.895	7.8487	30.971						
-3.6500	30.986	8.1678	31.056						
-3.6400	31.066	8.4709	31.147						
-3.6300	31.146	7.9763	31.233						
-3.6200	31.232	8.4071	31.324						
-3.6100	31.313	8.6464	31.407						
-3.6000	31.393	8.2475	31.502						
-3.5900	31.489	8.5506	31.593						
-3.5800	31.573	8.7421	31.681						
-3.5700	31.650	8.2795	31.772						
-3.5600	31.742	8.6942	31.863						
-3.5500	31.825	9.0611	31.951						
-3.5400	31.911	8.8537	32.038						
-3.5300	32.013	9.2047	32.125						
-3.5200	32.101	9.4440	32.220						
-3.5100	32.190	8.4868	32.314						
-3.5000	32.285	8.7580	32.404						
-3.4900	32.369	8.7421	32.487						
-3.4800	32.443	8.7421	32.584						
-3.4700	32.540	9.0452	32.673						
-3.4600	32.631	9.8588	32.767						
-3.4500	32.731	9.7631	32.863						
-3.4400	32.835	9.9385	32.944						
-3.4300	32.935	10.513	33.032						
-3.4200	33.033	9.9704	33.126						
-3.4100	33.133	9.4440	33.227						
-3.4000	33.245	9.5876	33.313						
-3.3900	33.325	9.3642	33.393						
-3.3800	33.408	8.6623	33.479						
-3.3700	33.505	9.1249	33.565						
-3.3600	33.591	8.5028	33.654						
-3.3500	33.682	8.1199	33.742						
-3.3400	33.770	9.0133	33.822						
-3.3300	33.830	8.5028	33.914						
-3.3200	33.923	8.1359	34.004						
-3.3100	34.033	9.2526	34.087						
-3.3000	34.106	8.9814	34.173						
-3.2900	34.193	8.2156	34.256						
-3.2800	34.285	8.8059	34.334						
-3.2700	34.362	8.6942	34.426						
-3.2600	34.451	7.5456	34.514						
-3.2500	34.539	7.6413	34.602						
-3.2400	34.609	7.9604	34.685						
-3.2300	34.665	7.2744	34.754						
-3.2200	34.746	7.3701	34.852						
-3.2100	34.840	8.4071	34.931						
-3.2000	34.910	8.8857	35.007						
-3.1900	34.997	8.4071	35.095						
-3.1800	35.091	8.4709	35.176						
-3.1700	35.183	8.5506	35.277						
-3.1600	35.263	9.1728	35.366						
-3.1500	35.338	8.8697	35.443						
-3.1400	35.432	8.1040	35.540						
-3.1300	35.542	9.2366	35.629						
-3.1200	35.620	9.6035	35.682						
-3.1100	35.687	8.4071	35.771						
-3.1000	35.801	8.6942	35.893						
-3.0900	35.896	10.385	35.975						
-3.0800	35.974	9.1888	36.058						
-3.0700	36.077	8.8697	36.148						
-3.0600	36.187	9.9545	36.237						
-3.0500	36.260	9.7631	36.323						
-3.0400	36.356	8.8697	36.419						
-3.0300	36.466	9.8109	36.524						
-3.0200	36.555	10.082	36.598						
-3.0100	36.646	9.4919	36.689						
-3.0000	36.751	9.2207	36.807						
-2.9900	36.849	9.2845	36.906						
-2.9800	36.936	9.3323	36.982						
-2.9700	37.018	9.6035	37.070						
-2.9600	37.112	9.1090	37.183						
-2.9500	37.220	9.4440	37.296						
-2.9400	37.322	9.8109	37.370						
-2.9300	37.397	8.7580	37.443						
-2.9200	37.490	8.2475	37.548						
-2.9100	37.584	9.4440	37.644						
-2.9000	37.656	9.4280	37.738						
-2.8900	37.753	8.5506	37.837						
-2.8800	37.865	8.7740	37.919						
-2.8700	37.948	8.8218	38.006						
-2.8600	38.015	8.3273	38.100						
-2.8500	38.093	8.3114	38.201						
-2.8400	38.187	8.9973	38.300						
-2.8300	38.284	9.0452	38.367						
-2.8200	38.374	8.4071	38.439						
-2.8100	38.461	8.1837	38.534						
-2.8000	38.533	7.8966	38.617						
-2.7900	38.603	8.2635	38.699						
-2.7800	38.693	9.2526	38.786						
-2.7700	38.781	9.4440	38.872						
-2.7600	38.892	9.4919	38.939						
-2.7500	38.999	9.6833	39.016						
-2.7400	39.076	8.8378	39.137						
-2.7300	39.165	8.2475	39.247						
-2.7200	39.248	8.6304	39.357						
-2.7100	39.326	8.5187	39.448						
-2.7000	39.417	8.3433	39.491						
-2.6900	39.505	8.5985	39.568						
-2.6800	39.589	8.5187	39.702						
-2.6700	39.669	8.4390	39.801						
-2.6600	39.755	9.1090	39.873						
-2.6500	39.845	9.0930	39.949						
-2.6400	39.935	7.8009	40.035						
-2.6300	40.038	7.7530	40.125						
-2.6200	40.103	8.4230	40.230						
-2.6100	40.148	7.7371	40.334						
-2.6000	40.242	8.7899	40.393						
-2.5900	40.352	9.5557	40.468						
-2.5800	40.444	8.7421	40.567						
-2.5700	40.550	8.1678	40.656						
-2.5600	40.609	8.3114	40.734						
-2.5500	40.669	7.6573	40.828						
-2.5400	40.760	8.0083	40.891						
-2.5300	40.853	8.8857	40.922						
-2.5200	40.944	8.9814	41.005						
-2.5100	41.025	9.4600	41.101						
-2.5000	41.118	9.3802	41.208						
-2.4900	41.216	9.0452	41.315						
-2.4800	41.323	9.5397	41.363						
-2.4700	41.410	9.6035	41.420						
-2.4600	41.484	8.5826	41.503						
-2.4500	41.591	8.9654	41.588						
-2.4400	41.684	10.242	41.674						
-2.4300	41.765	9.8269	41.789						
-2.4200	41.877	9.8588	41.865						
-2.4100	41.990	10.656	41.923						
-2.4000	42.084	9.2047	42.042						
-2.3900	42.180	7.8328	42.164						
-2.3800	42.268	8.7421	42.259						
-2.3700	42.319	8.6623	42.331						
-2.3600	42.395	7.6573	42.419						
-2.3500	42.517	8.6942	42.505						
-2.3400	42.603	9.4919	42.610						
-2.3300	42.670	8.2635	42.762						
-2.3200	42.759	7.9604	42.843						
-2.3100	42.847	7.2744	42.883						
-2.3000	42.922	7.6254	42.985						
-2.2900	42.992	8.1997	43.073						
-2.2800	43.041	7.7849	43.138						
-2.2700	43.147	7.1468	43.216						
-2.2600	43.247	7.8806	43.296						
-2.2500	43.303	7.4659	43.379						
-2.2400	43.357	6.4449	43.475						
-2.2300	43.423	6.2854	43.539						
-2.2200	43.503	6.5885	43.612						
-2.2100	43.568	5.9185	43.687						
-2.2000	43.621	6.6523	43.736						
-2.1900	43.681	7.8487	43.815						
-2.1800	43.735	6.7320	43.880						
-2.1700	43.849	6.2694	43.934						
-2.1600	43.941	7.7849	44.011						
-2.1500	43.956	6.7001	44.083						
-2.1400	44.013	5.7908	44.132						
-2.1300	44.104	7.0351	44.190						
-2.1200	44.176	7.1149	44.242						
-2.1100	44.252	7.2904	44.325						
-2.1000	44.310	7.4340	44.378						
-2.0900	44.372	6.9235	44.435						
-2.0800	44.469	7.4499	44.528						
-2.0700	44.543	7.9444	44.633						
-2.0600	44.610	7.7211	44.718						
-2.0500	44.689	7.6573	44.769						
-2.0400	44.766	7.9604	44.820						
-2.0300	44.857	8.4868	44.898						
-2.0200	44.933	8.4868	44.982						
-2.0100	45.016	8.4390	45.094						
-2.0000	45.114	8.6304	45.172						
-1.9900	45.190	8.5028	45.228						
-1.9800	45.281	8.2954	45.330						
-1.9700	45.363	8.9495	45.431						
-1.9600	45.441	8.5347	45.509						
-1.9500	45.536	8.2954	45.585						
-1.9400	45.629	8.1359	45.672						
-1.9300	45.702	7.8966	45.739						
-1.9200	45.773	7.6254	45.821						
-1.9100	45.841	7.2585	45.904						
-1.9000	45.924	6.9873	45.984						
-1.8900	46.002	6.9075	46.058						
-1.8800	46.060	6.6044	46.134						
-1.8700	46.119	6.7799	46.200						
-1.8600	46.181	6.0939	46.260						
-1.8500	46.253	5.7749	46.343						
-1.8400	46.328	5.9025	46.410						
-1.8300	46.358	5.3122	46.463						
-1.8200	46.404	4.0041	46.527						
-1.8100	46.460	4.7858	46.555						
-1.8000	46.500	4.4189	46.618						
-1.7900	46.538	3.9722	46.680						
-1.7800	46.589	4.4029	46.707						
-1.7700	46.620	4.1158	46.753						
-1.7600	46.664	3.7648	46.809						
-1.7500	46.715	4.5784	46.866						
-1.7400	46.744	5.2803	46.929						
-1.7300	46.795	5.2006	46.983						
-1.7200	46.861	5.5834	47.026						
-1.7100	46.929	5.5675	47.079						
-1.7000	46.982	5.5834	47.118						
-1.6900	47.023	5.6792	47.181						
-1.6800	47.074	5.6632	47.232						
-1.6700	47.141	5.5356	47.265						
-1.6600	47.213	6.0301	47.326						
-1.6500	47.266	6.1099	47.391						
-1.6400	47.309	6.0301	47.457						
-1.6300	47.377	6.0939	47.533						
-1.6200	47.448	7.1628	47.586						
-1.6100	47.521	6.8916	47.642						
-1.6000	47.586	6.7799	47.701						
-1.5900	47.661	6.5885	47.761						
-1.5800	47.719	6.4289	47.822						
-1.5700	47.783	6.4768	47.875						
-1.5600	47.848	6.6204	47.921						
-1.5500	47.909	6.3173	47.951						
-1.5400	47.985	5.9663	48.004						
-1.5300	48.043	6.0301	48.064						
-1.5200	48.092	5.5675	48.131						
-1.5100	48.145	5.5196	48.192						
-1.5000	48.202	5.5994	48.249						
-1.4900	48.263	5.5196	48.293						
-1.4800	48.319	5.3282	48.336						
-1.4700	48.368	4.4987	48.385						
-1.4600	48.413	4.4189	48.443						
-1.4500	48.454	4.5306	48.462						
-1.4400	48.486	4.2275	48.479						
-1.4300	48.539	3.7010	48.537						
-1.4200	48.587	4.0041	48.581						
-1.4100	48.615	3.3022	48.607						
-1.4000	48.639	2.6162	48.632						
-1.3900	48.671	2.8715	48.650						
-1.3800	48.694	2.9193	48.691						
-1.3700	48.721	2.1696	48.750						
-1.3600	48.756	2.2653	48.768						
-1.3500	48.773	2.3450	48.781						
-1.3400	48.781	2.2015	48.816						
-1.3300	48.807	1.8027	48.856						
-1.3200	48.834	2.0898	48.876						
-1.3100	48.861	2.3610	48.883						
-1.3000	48.869	2.0260	48.884						
-1.2900	48.888	1.5474	48.932						
-1.2800	48.918	2.5365	48.971						
-1.2700	48.933	2.7917	49.006						
-1.2600	48.955	2.1217	49.018						
-1.2500	48.997	2.1696	49.054						
-1.2400	49.017	2.3770	49.090						
-1.2300	49.027	2.8715	49.100						
-1.2200	49.046	1.8186	49.125						
-1.2100	49.078	2.4727	49.148						
-1.2000	49.127	3.3660	49.178						
-1.1900	49.123	2.5365	49.215						
-1.1800	49.161	2.1855	49.264						
-1.1700	49.201	3.6532	49.285						
-1.1600	49.206	2.9353	49.302						
-1.1500	49.257	2.4248	49.349						
-1.1400	49.292	3.1586	49.371						
-1.1300	49.303	2.9512	49.393						
-1.1200	49.333	3.1427	49.420						
-1.1100	49.360	2.9512	49.459						
-1.1000	49.405	2.3291	49.481						
-1.0900	49.442	2.4089	49.479						
-1.0800	49.439	1.4038	49.508						
-1.0700	49.445	0.94121	49.519						
-1.0600	49.462	1.4038	49.530						
-1.0500	49.470	1.7867	49.553						
-1.0400	49.498	1.1486	49.577						
-1.0300	49.512	1.2443	49.588						
-1.0200	49.525	1.7388	49.590						
-1.0100	49.523	1.2762	49.625						
-1.0000	49.537	0.54239	49.637						
-0.99000	49.574	1.5315	49.628						
-0.98000	49.568	1.2603	49.594						
-0.97000	49.565	?	49.591						
-0.96000	49.588	0.52644	49.623						
-0.95000	49.580	1.1805	49.634						
-0.94000	49.577	0.15953	49.620						
-0.93000	49.600	0.33501	49.602						
-0.92000	49.608	0.46263	49.604						
-0.91000	49.600	0.11167	49.602						
-0.90000	49.598	0.38287	49.610						
-0.89000	49.596	0.60620	49.607						
-0.88000	49.611	0.31906	49.585						
-0.87000	49.630	0.95716	49.580						
-0.86000	49.628	0.81359	49.604						
-0.85000	49.624	0.44668	49.599						
-0.84000	49.641	1.2284	49.580						
-0.83000	49.649	0.98907	49.585						
-0.82000	49.663	0.60620	49.593						
-0.81000	49.684	0.89335	49.599						
-0.80000	49.668	1.0210	49.604						
-0.79000	49.676	0.30310	49.609						
-0.78000	49.694	1.1965	49.644						
-0.77000	49.708	1.5155	49.671						
-0.76000	49.716	1.6591	49.672						
-0.75000	49.734	1.2603	49.682						
-0.74000	49.753	1.6431	49.695						
-0.73000	49.772	1.6272	49.716						
-0.72000	49.777	1.2762	49.735						
-0.71000	49.796	1.1167	49.747						
-0.70000	49.809	1.3879	49.768						
-0.69000	49.815	1.1326	49.781						
-0.68000	49.831	1.1486	49.802						
-0.67000	49.842	1.4038	49.826						
-0.66000	49.853	1.0529	49.818						
-0.65000	49.868	0.74977	49.824						
-0.64000	49.877	0.52644	49.846						
-0.63000	49.877	0.57430	49.858						
-0.62000	49.876	0.19143	49.869						
-0.61000	49.879	0.44668	49.875						
-0.60000	49.892	0.70192	49.886						
-0.59000	49.892	0.35096	49.920						
-0.58000	49.901	?	49.905						
-0.57000	49.903	?   49.883						
-0.56000	49.890	?	49.891						
-0.55000	49.890	?	49.899						
-0.54000	49.898	?	49.907						
-0.53000	49.874	?	49.907						
-0.52000	49.876	?49.904						
-0.51000	49.871	?	49.901						
-0.50000	49.853	?	49.917						
-0.49000	49.852	?	49.921						
-0.48000	49.864	0.31905	49.925						
-0.47000	49.860	0.095716	49.929						
-0.46000	49.863	0.12762	49.923						
-0.45000	49.866	0.44668	49.931						
-0.44000	49.858	0.095716	49.936						
-0.43000	49.874	?	49.926						
-0.42000	49.876	0.51048	49.926						
-0.41000	49.866	0.35096	49.926						
-0.40000	49.866	0.031904	49.926						
-0.39000	49.880	0.70192	49.923						
-0.38000	49.890	0.78168	49.936						
-0.37000	49.888	0.52644	49.937						
-0.36000	49.901	0.60620	49.939						
-0.35000	49.901	0.62216	49.940						
-0.34000	49.908	0.14357	49.952						
-0.33000	49.919	0.51048	49.955						
-0.32000	49.914	0.84549	49.952						
-0.31000	49.915	0.36691	49.953						
-0.30000	49.930	0.52644	49.950						
-0.29000	49.943	0.59025	49.960						
-0.28000	49.939	0.25524	49.961						
-0.27000	49.939	0.11167	49.953						
-0.26000	49.939	0.54239	49.966						
-0.25000	49.943	0.49453	49.972						
-0.24000	49.955	0.63811	49.969						
-0.23000	49.967	0.73382	49.974						
-0.22000	49.967	0.52644	49.979						
-0.21000	49.971	0.27120	49.979						
-0.20000	49.975	0.38287	49.988						
-0.19000	49.978	0.17548	49.984						
-0.18000	49.981	0.30310	49.982						
-0.17000	49.982	?	49.993						
-0.16000	49.981	0.31905	49.998						
-0.15000	49.986	0.47858	50.000						
-0.14000	49.981	0.57430	50.000						
-0.13000	50.000	0.51049	49.996						
-0.12000	50.008	0.90931	50.006						
-0.11000	50.010	0.36691	50.011						
-0.100000	50.014	0.095719	50.007						
-0.090000	50.016	0.19143	50.004						
-0.080000	50.014	0.27120	50.003						
-0.070000	50.014	0.11167	50.017						
-0.060000	50.019	?	50.031						
-0.050000	50.024	?	50.030						
-0.040000	50.018	0.031907	50.028						
-0.030000	50.008	0.12762	50.041						
-0.020000	50.013	0.12762	50.035						
-0.0100000	50.022	0.20739	50.030						
0.0000	50.030	-0.095717	50.025						
0.0100000	50.024	0.22334	50.022						
0.020000	50.014	-0.12762	50.025						
0.030000	50.011	-0.27120	50.030						
0.040000	50.027	-0.19143	50.027						
0.050000	50.022	0.19143	50.023						
0.060000	50.013	-0.46263	50.022						
0.070000	50.008	-0.30310	50.023						
0.080000	50.011	-0.031907	50.028						
0.090000	50.008	-0.15953	50.031						
0.100000	50.011	-0.063813	50.031						
0.11000	50.010	-0.031906	50.033						
0.12000	50.002	-0.23929	50.025						
0.13000	50.008	0.015953	50.019						
0.14000	50.005	0.41477	50.014						
0.15000	50.005	-0.095716	50.006						
0.16000	50.014	0.047857	50.012						
0.17000	50.014	-0.015953	50.004						
0.18000	50.005	-0.25524	50.012						
0.19000	50.005	-0.41477	50.022						
0.20000	50.000	0.11167	50.020						
0.21000	50.002	-0.079763	50.017						
0.22000	50.002	0.063811	50.023						
0.23000	50.008	0.12762	50.017						
0.24000	50.003	0.079764	50.011						
0.25000	50.003	-0.41477	50.019						
0.26000	50.005	-0.19143	50.011						
0.27000	49.998	-0.27120	50.007						
0.28000	49.990	-0.43072	50.011						
0.29000	49.992	-0.17548	50.019						
0.30000	49.989	0.079764	50.022						
0.31000	49.989	0.095717	50.014						
0.32000	49.994	-0.047858	50.017						
0.33000	49.994	-0.19143	50.022						
0.34000	49.994	-0.23929	50.017						
0.35000	49.984	-0.031905	50.022						
0.36000	49.979	-0.25524	50.022						
0.37000	49.984	-0.095716	50.015						
0.38000	49.989	-0.27120	50.007						
0.39000	49.982	-0.25524	50.006						
0.40000	49.976	-0.33501	50.009						
0.41000	49.965	-0.74978	50.009						
0.42000	49.968	-0.70192	49.996						
0.43000	49.967	-0.015952	49.990						
0.44000	49.949	-0.30310	49.992						
0.45000	49.951	-0.62215	49.993						
0.46000	49.959	0.047859	49.993						
0.47000	49.951	-0.31906	49.985						
0.48000	49.944	-0.63811	49.971						
0.49000	49.944	-0.20739	49.960						
0.50000	49.931	-0.23929	49.953						
0.51000	49.933	-0.81359	49.960						
0.52000	49.938	-0.031906	49.956						
0.53000	49.927	-0.063812	49.942						
0.54000	49.915	-0.57430	49.934						
0.55000	49.927	-0.52644	49.934						
0.56000	49.922	-0.30310	49.933						
0.57000	49.911	-0.68597	49.926						
0.58000	49.903	-0.28715	49.920						
0.59000	49.896	-0.17548	49.909						
0.60000	49.900	-0.30310	49.905						
0.61000	49.909	-5.0000e-07	49.910						
0.62000	49.901	-0.15953	49.910						
0.63000	49.892	-0.36691	49.913						
0.64000	49.893	-0.079763	49.913						
0.65000	49.890	0.12762	49.904						
0.66000	49.896	-0.22334	49.905						
0.67000	49.900	0.35096	49.912						
0.68000	49.895	0.19143	49.912						
0.69000	49.890	-0.14357	49.905						
0.70000	49.903	-0.41477	49.907						
0.71000	49.900	0.12762	49.907						
0.72000	49.890	-0.47858	49.912						
0.73000	49.880	-0.22334	49.920						
0.74000	49.888	0.095717	49.918						
0.75000	49.885	0.33501	49.910						
0.76000	49.895	0.12762	49.909						
0.77000	49.898	0.41477	49.905						
0.78000	49.895	0.095717	49.910						
0.79000	49.898	0.15953	49.915						
0.80000	49.901	0.20739	49.907						
0.81000	49.901	0.35096	49.902						
0.82000	49.908	0.46263	49.905						
0.83000	49.908	0.22334	49.909						
0.84000	49.915	-0.11167	49.910						
0.85000	49.919	0.063810	49.910						
0.86000	49.908	0.079763	49.912						
0.87000	49.904	-0.28715	49.907						
0.88000	49.909	-0.27120	49.910						
0.89000	49.914	-0.063812	49.918						
0.90000	49.906	0.11167	49.912						
0.91000	49.898	-0.11167	49.905						
0.92000	49.903	-0.11167	49.907						
0.93000	49.911	-0.17548	49.904						
0.94000	49.908	-0.35096	49.904						
0.95000	49.898	-0.57430	49.907						
0.96000	49.885	-0.49453	49.899						
0.97000	49.882	-0.55834	49.905						
0.98000	49.884	-0.20739	49.904						
0.99000	49.884	-0.27120	49.901						
1.0000	49.876	-0.17548	49.902						
1.0100	49.874	-0.35096	49.901						
1.0200	49.869	-0.22334	49.894						
1.0300	49.872	-0.41477	49.894						
1.0400	49.868	-0.095716	49.893						
1.0500	49.863	-0.12762	49.896						
1.0600	49.858	-0.41477	49.894						
1.0700	49.863	-0.12762	49.891						
1.0800	49.863	0.031905	49.885						
1.0900	49.852	-0.49453	49.877						
1.1000	49.856	-0.38287	49.875						
1.1100	49.852	-0.19143	49.873						
1.1200	49.841	-0.54239	49.869						
1.1300	49.845	-0.41477	49.864						
1.1400	49.837	-0.12762	49.856						
1.1500	49.833	-0.49453	49.856						
1.1600	49.834	-0.28715	49.859						
1.1700	49.829	-0.079764	49.859						
1.1800	49.825	-0.43072	49.858						
1.1900	49.825	-0.36691	49.856						
1.2000	49.823	-0.35096	49.851						
1.2100	49.813	-0.51049	49.842						
1.2200	49.810	-0.73383	49.840						
1.2300	49.804	-0.27120	49.832						
1.2400	49.797	-0.52644	49.827						
1.2500	49.793	-0.55835	49.816						
1.2600	49.796	-0.28715	49.805						
1.2700	49.785	-0.36691	49.810						
1.2800	49.780	-0.55834	49.813						
1.2900	49.781	-0.095716	49.813						
1.3000	49.774	-0.20738	49.810						
1.3100	49.775	-0.28715	49.806						
1.3200	49.778	0.12762	49.802						
1.3300	49.770	0.11167	49.797						
1.3400	49.774	-0.17548	49.803						
1.3500	49.778	5.0000e-07	49.800						
1.3600	49.777	-0.047858	49.794						
1.3700	49.772	-0.20738	49.791						
1.3800	49.769	-0.22334	49.791						
1.3900	49.769	-0.031906	49.787						
1.4000	49.769	-1.0000e-06	49.791						
1.4100	49.769	-0.14357	49.795						
1.4200	49.770	0.063812	49.795						
1.4300	49.767	-0.11167	49.792						
1.4400	49.764	-0.19143	49.787						
1.4500	49.769	-0.11167	49.783						
1.4600	49.762	0.015954	49.781						
1.4700	49.762	-0.23929	49.775						
1.4800	49.762	-0.19143	49.771						
1.4900	49.761	-0.19143	49.770						
1.5000	49.758	-0.17548	49.770						
1.5100	49.753	-0.22334	49.765						
1.5200	49.753	-0.20739	49.760						
1.5300	49.753	-0.27120	49.760						
1.5400	49.750	-0.27120	49.754						
1.5500	49.746	-0.12762	49.747						
1.5600	49.740	-0.12762	49.747						
1.5700	49.742	-0.17548	49.739						
1.5800	49.746	0.015951	49.736						
1.5900	49.743	-0.15953	49.733						
1.6000	49.740	-0.17548	49.727						
1.6100	49.738	0.19143	49.727						
1.6200	49.735	0.11167	49.724						
1.6300	49.743	0.015951	49.720						
1.6400	49.751	0.20739	49.722						
1.6500	49.745	0.11167	49.720						
1.6600	49.742	-0.14357	49.717						
1.6700	49.743	0.14357	49.716						
1.6800	49.746	0.31905	49.708						
1.6900	49.750	0.27120	49.700						
1.7000	49.754	0.11167	49.700						
1.7100	49.756	0.20738	49.698						
1.7200	49.754	0.095715	49.701						
1.7300	49.753	-0.063811	49.700						
1.7400	49.758	0.095716	49.698						
1.7500	49.758	0.25525	49.701						
1.7600	49.756	0.047860	49.696						
1.7700	49.761	0.079765	49.693						
1.7800	49.762	0.15953	49.692						
1.7900	49.761	0.17548	49.687						
1.8000	49.762	-0.12762	49.684						
1.8100	49.762	-0.19143	49.680						
1.8200	49.764	-0.31905	49.679						
1.8300	49.754	-0.20738	49.679						
1.8400	49.750	-0.30310	49.679						
1.8500	49.748	-0.19143	49.677						
1.8600	49.751	-0.079763	49.676						
1.8700	49.751	-0.079764	49.674						
1.8800	49.746	-0.19143	49.676						
1.8900	49.745	-0.30310	49.677						
1.9000	49.742	-0.20738	49.676						
1.9100	49.740	-0.36691	49.677						
1.9200	49.737	-0.35096	49.674						
1.9300	49.734	-0.19143	49.672						
1.9400	49.727	-0.36691	49.671						
1.9500	49.726	-0.47858	49.665						
1.9600	49.727	-0.27120	49.666						
1.9700	49.718	-0.31906	49.668						
1.9800	49.713	-0.38287	49.661						
1.9900	49.713	-0.22334	49.663						
2.0000	49.710	-0.11167	49.663						
2.0100	49.711	-0.22333	49.660						
2.0200	49.708	0.031906	49.657						
2.0300	49.707	-0.17548	49.653						
2.0400	49.705	-0.12762	49.649						
2.0500	49.708	-0.11167	49.652						
2.0600	49.703	-0.095718	49.657						
2.0700	49.702	-0.31905	49.655						
2.0800	49.700	-0.22334	49.652						
2.0900	49.697	-0.23929	49.647						
2.1000	49.694	-0.19143	49.641						
2.1100	49.692	-0.23929	49.634						
2.1200	49.691	-0.063810	49.629						
2.1300	49.691	-0.20739	49.629						
2.1400	49.687	-0.031906	49.628						
2.1500	49.689	-0.12762	49.628						
2.1600	49.684	-0.12762	49.629						
2.1700	49.687	-0.14357	49.628						
2.1800	49.684	-0.063809	49.631						
2.1900	49.681	-0.15953	49.628						
2.2000	49.683	-0.17548	49.623						
2.2100	49.679	-0.079765	49.618						
2.2200	49.679	-0.28715	49.617						
2.2300	49.676	-0.047858	49.612						
2.2400	49.675	-0.20739	49.609						
2.2500	49.671	-0.17548	49.604						
2.2600	49.675	-0.15953	49.601						
2.2700	49.670	-0.047858	49.597						
2.2800	49.668	-0.14357	49.593						
2.2900	49.668	-0.047858	49.590						
2.3000	49.668	0.031904	49.588						
2.3100	49.670	0.27119	49.588						
2.3200	49.670	0.12762	49.588						
2.3300	49.673	0.14357	49.585						
2.3400	49.679	0.095716	49.586						
2.3500	49.675	0.19143	49.583						
2.3600	49.676	-0.11167	49.580						
2.3700	49.675	-0.015952	49.578						
2.3800	49.678	-0.12762	49.577						
2.3900	49.675	-0.20739	49.577						
2.4000	49.671	-0.30310	49.575						
2.4100	49.668	-0.20739	49.577						
2.4200	49.663	-0.047860	49.574						
2.4300	49.665	-0.095717	49.574						
2.4400	49.667	-0.079765	49.572						
2.4500	49.668	-0.095717	49.569						
2.4600	49.663	-0.17548	49.562						
2.4700	49.659	-0.22334	49.559						
2.4800	49.659	-0.30310	49.559						
2.4900	49.657	-0.031906	49.561						
2.5000	49.657	-0.095716	49.561						
2.5100	49.652	-0.22334	49.562						
2.5200	49.655	-0.20738	49.556						
2.5300	49.652	0.079763	49.551						
2.5400	49.647	-0.095716	49.543						
2.5500	49.651	-0.063812	49.542						
2.5600	49.654	0.14357	49.537						
2.5700	49.652	0.11167	49.535						
2.5800	49.652	3.0635e-13	49.532						
2.5900	49.654	0.15953	49.529						
2.6000	49.655	0.25524	49.532						
2.6100	49.657	0.33501	49.529						
2.6200	49.662	0.079764	49.529						
2.6300	49.665	0.095716	49.523						
2.6400	49.667	0.20739	49.521						
2.6500	49.660	0.17548	49.519						
2.6600	49.663	0.031905	49.519						
2.6700	49.671	0.35096	49.518						
2.6800	49.673	0.38286	49.516						
2.6900	49.673	0.031904	49.515						
2.7000	49.676	-0.095717	49.513						
2.7100	49.676	0.031904	49.507						
2.7200	49.671	-0.047858	49.507						
2.7300	49.670	-0.15953	49.505						
2.7400	49.673	0.047858	49.503						
2.7500	49.673	-0.015950	49.503						
2.7600	49.671	0.031907	49.499						
2.7700	49.673	-0.015950	49.497						
2.7800	49.670	0.14357	49.495						
2.7900	49.675	0.079764	49.491						
2.8000	49.675	0.19143	49.484						
2.8100	49.678	-0.015953	49.484						
2.8200	49.678	0.063811	49.483						
2.8300	49.676	-0.031904	49.487						
2.8400	49.675	-0.047856	49.487						
2.8500	49.676	-0.047856	49.486						
2.8600	49.676	0.11167	49.487						
2.8700	49.676	-0.015953	49.486						
2.8800	49.676	0.20738	49.481						
2.8900	49.679	0.22334	49.481						
2.9000	49.679	0.38286	49.481						
2.9100	49.687	0.19143	49.483						
2.9200	49.689	0.27120	49.486						
2.9300	49.692	0.063812	49.484						
2.9400	49.689	-0.015953	49.487						
2.9500	49.689	-0.095717	49.487						
2.9600	49.689	-0.015953	49.487						
2.9700	49.687	0.047856	49.484						
2.9800	49.689	-0.047860	49.481						
2.9900	49.689	0.11167	49.481						
3.0000	49.691	0.063811	49.479						
3.0100	49.689	2.2139e-13	49.476						
3.0200	49.692	0.15953	49.473						
3.0300	49.692	0.25524	49.473						
3.0400	49.692	0.25524	49.473						
3.0500	49.700	0.25524	49.471						
3.0600	49.702	0.35096	49.470						
3.0700	49.705	0.11167	49.473						
3.0800	49.705	-0.031904	49.479						
3.0900	49.705	-0.031906	49.475						
3.1000	49.703	-0.095717	49.468						
3.1100	49.700	0.063811	49.468						
3.1200	49.703	0.11167	49.465						
3.1300	49.703	0.22334	49.468						
3.1400	49.710	0.28715	49.468						
3.1500	49.711	0.43072	49.465						
3.1600	49.713	0.27120	49.463						
3.1700	49.719	0.28715	49.462						
3.1800	49.722	0.46263	49.463						
3.1900	49.724	0.20739	49.463						
3.2000	49.727	0.17548	49.463						
3.2100	49.732	0.46263	49.460						
3.2200	49.730	0.31905	49.456						
3.2300	49.735	0.27119	49.452						
3.2400	49.745	0.41477	49.448						
3.2500	49.743	0.47858	49.448						
3.2600	49.748	0.20739	49.444						
3.2700	49.751	0.44668	49.440						
3.2800	49.756	0.43072	49.433						
3.2900	49.759	0.44668	49.433						
3.3000	49.766	0.52644	49.433						
3.3100	49.770	0.54239	49.428						
3.3200	49.775	0.62216	49.428						
3.3300	49.783	0.67002	49.424						
3.3400	49.788	0.70192	49.417						
3.3500	49.797	0.62216	49.416						
3.3600	49.804	0.65406	49.416						
3.3700	49.809	0.41477	49.416						
3.3800	49.813	0.35096	49.412						
3.3900	49.817	0.47858	49.412						
3.4000	49.818	0.67001	49.408						
3.4100	49.825	0.59025	49.408						
3.4200	49.836	0.86145	49.409						
3.4300	49.847	0.82954	49.404						
3.4400	49.850	0.67001	49.404						
3.4500	49.860	0.51049	49.404						
3.4600	49.863	0.71787	49.403						
3.4700	49.868	0.57430	49.398						
3.4800	49.876	0.86145	49.398						
3.4900	49.885	0.86145	49.398						
3.5000	49.893	0.86145	49.398						
3.5100	49.906	0.89335	49.395						
3.5200	49.911	0.79763	49.390						
3.5300	49.919	0.74978	49.389						
3.5400	49.928	0.84549	49.389						
3.5500	49.933	0.94121	49.387						
3.5600	49.946	0.97311	49.385						
3.5700	49.955	1.3400	49.382						
3.5800	49.968	1.2443	49.382						
3.5900	49.982	1.2922	49.381						
3.6000	49.998	1.2284	49.384						
3.6100	50.008	1.0210	49.385						
3.6200	50.018	0.86145	49.387						
3.6300	50.026	1.0050	49.387						
3.6400	50.032	1.1326	49.384						
3.6500	50.045	1.1007	49.377						
3.6600	50.061	1.3400	49.373						
3.6700	50.075	1.4198	49.376						
3.6800	50.085	1.1486	49.373						
3.6900	50.099	1.1805	49.369						
3.7000	50.112	1.3879	49.369						
3.7100	50.120	1.3241	49.369						
3.7200	50.137	1.3400	49.373						
3.7300	50.153	1.4198	49.371						
3.7400	50.166	1.4836	49.368						
3.7500	50.180	1.3879	49.363						
3.7600	50.191	1.4996	49.361						
3.7700	50.211	1.5315	49.361						
3.7800	50.225	1.7548	49.360						
3.7900	50.243	1.6112	49.358						
3.8000	50.260	1.6431	49.357						
3.8100	50.278	1.9143	49.355						
3.8200	50.294	2.0579	49.353						
3.8300	50.313	2.1217	49.355						
3.8400	50.341	2.2972	49.353						
3.8500	50.365	2.5205	49.353						
3.8600	50.388	2.4089	49.358						
3.8700	50.412	2.3770	49.357						
3.8800	50.437	2.5684	49.355						
3.8900	50.463	2.6801	49.357						
3.9000	50.488	2.7279	49.355						
3.9100	50.519	2.7598	49.355						
3.9200	50.547	3.0310	49.350						
3.9300	50.576	3.1746	49.352						
3.9400	50.606	3.2224	49.353						
3.9500	50.643	3.4139	49.353						
3.9600	50.680	3.6053	49.352						
3.9700	50.713	3.7967	49.347						
3.9800	50.751	3.9084	49.344						
3.9900	50.791	4.3072	49.342						
4.0000	50.838	4.6103	49.341						
4.0100	50.884	4.7858	49.339						
4.0200	50.935	4.8815	49.336						
4.0300	50.986	5.0570	49.331						
4.0400	51.034	5.2165	49.333						
4.0500	51.086	5.5515	49.331						
4.0600	51.142	5.9185	49.323						
4.0700	51.204	6.3332	49.325						
4.0800	51.273	6.7639	49.326						
4.0900	51.340	7.2266	49.322						
4.1000	51.413	7.4021	49.318						
4.1100	51.490	7.7690	49.315						
4.1200	51.571	7.9444	49.314						
4.1300	51.651	8.2795	49.309						
4.1400	51.734	8.4709	49.309						
4.1500	51.819	8.9654	49.312						
4.1600	51.911	9.3961	49.310						
4.1700	52.007	9.9226	49.312						
4.1800	52.111	10.289	49.309						
4.1900	52.216	10.768	49.306						
4.2000	52.324	10.991	49.301						
4.2100	52.436	11.374	49.298						
4.2200	52.552	11.853	49.294						
4.2300	52.671	12.363	49.294						
4.2400	52.797	12.794	49.291						
4.2500	52.929	13.209	49.290						
4.2600	53.065	13.560	49.291						
4.2700	53.202	13.831	49.285						
4.2800	53.339	14.022	49.282						
4.2900	53.481	14.278	49.282						
4.3000	53.626	14.613	49.278						
4.3100	53.773	15.059	49.277						
4.3200	53.924	15.331	49.275						
4.3300	54.079	15.618	49.277						
4.3400	54.240	15.729	49.274						
4.3500	54.398	15.841	49.269						
4.3600	54.556	15.809	49.269						
4.3700	54.712	15.745	49.269						
4.3800	54.870	15.793	49.270						
4.3900	55.030	15.793	49.269						
4.4000	55.186	15.857	49.270						
4.4100	55.346	15.761	49.267						
4.4200	55.502	15.618	49.269						
4.4300	55.660	15.346	49.266						
4.4400	55.813	15.043	49.266						
4.4500	55.960	14.645	49.261						
4.4600	56.105	14.373	49.261						
4.4700	56.246	14.182	49.261						
4.4800	56.386	13.895	49.259						
4.4900	56.526	13.608	49.255						
4.5000	56.662	13.384	49.251						
4.5100	56.793	12.954	49.248						
4.5200	56.919	12.587	49.248						
4.5300	57.045	12.092	49.242						
4.5400	57.164	11.965	49.239						
4.5500	57.281	11.438	49.239						
4.5600	57.391	10.960	49.237						
4.5700	57.504	10.417	49.235						
4.5800	57.605	10.178	49.231						
4.5900	57.700	9.5238	49.227						
4.6000	57.793	9.0452	49.223						
4.6100	57.885	8.7580	49.221						
4.6200	57.970	8.5028	49.218						
4.6300	58.050	8.1359	49.216						
4.6400	58.131	7.8168	49.213						
4.6500	58.209	7.5137	49.216						
4.6600	58.284	7.1468	49.210						
4.6700	58.353	6.7799	49.211						
4.6800	58.417	6.5247	49.211						
4.6900	58.480	6.3651	49.215						
4.7000	58.543	6.2216	49.218						
4.7100	58.607	6.0142	49.216						
4.7200	58.667	5.8865	49.213						
4.7300	58.723	5.6473	49.211						
4.7400	58.777	5.3601	49.208						
4.7500	58.831	5.3761	49.207						
4.7600	58.884	5.3442	49.203						
4.7700	58.935	5.3122	49.200						
4.7800	58.991	5.2165	49.202						
4.7900	59.044	5.3282	49.205						
4.8000	59.096	5.4239	49.203						
4.8100	59.147	5.4399	49.203						
4.8200	59.203	5.3761	49.202						
4.8300	59.262	5.3920	49.200						
4.8400	59.315	5.4080	49.199						
4.8500	59.366	5.6473	49.194						
4.8600	59.419	5.5515	49.195						
4.8700	59.478	5.8227	49.188						
4.8800	59.545	5.8865	49.184						
4.8900	59.597	5.8706	49.178						
4.9000	59.658	5.6473	49.176						
4.9100	59.712	5.9504	49.178						
4.9200	59.769	5.9982	49.176						
4.9300	59.833	6.4289	49.175						
4.9400	59.899	6.7480	49.173						
4.9500	59.967	6.9394	49.170						
4.9600	60.041	7.1787	49.168						
4.9700	60.112	7.5616	49.165						
4.9800	60.187	7.9125	49.162						
4.9900	60.267	8.3114	49.154						
5.0000	60.355	8.8059	49.154						
5.0100	60.447	9.4280	49.154						
5.0200	60.542	10.018	49.152						
5.0300	60.644	10.752	49.152						
5.0400	60.755	11.789	49.148						
5.0500	60.877	12.635	49.148						
5.0600	61.011	13.975	49.144						
5.0700	61.156	14.980	49.143						
5.0800	61.307	16.320	49.135						
5.0900	61.483	17.739	49.135						
5.1000	61.661	19.670	49.135						
5.1100	61.867	21.712	49.133						
5.1200	62.094	24.551	49.133						
5.1300	62.347	26.992	49.135						
5.1400	62.636	29.321	49.133						
5.1500	62.950	31.873	49.130						
5.1600	63.279	34.889	49.128						
5.1700	63.630	38.366	49.128						
5.1800	64.024	42.530	49.125						
5.1900	64.479	48.400	49.124						
5.2000	64.989	54.574	49.119						
5.2100	65.559	61.482	49.114						
5.2200	66.216	69.410	49.109						
5.2300	66.942	79.109	49.106						
5.2400	67.775	90.516	49.109						
5.2500	68.729	104.60	49.109						
5.2600	69.836	122.01	49.108						
5.2700	71.136	143.06	49.108						
5.2800	72.650	165.86	49.108						
5.2900	74.438	192.61	49.105						
5.3000	76.518	225.40	49.095						
5.3100	78.898	266.19	49.093						
5.3200	81.738	345.38	49.092						
5.3300	85.195	421.47	49.089						
5.3400	89.534	453.84	49.089						
5.3500	95.188	454.97	49.084						
5.3600	100.37	419.97	49.082						
5.3700	104.00	321.65	49.079						
5.3800	106.61	218.47	49.076						
5.3900	108.27	186.82	49.073						
5.4000	109.40	186.81	49.068						
5.4100	110.85	213.37	49.063						
5.4200	113.61	244.60	49.061						
5.4300	116.75	351.93	49.060						
5.4400	120.03	352.59	49.054						
5.4500	123.35	334.56	49.046						
5.4600	128.24	309.74	49.042						
5.4700	130.58	237.30	49.038						
5.4800	132.40	107.46	49.036						
5.4900	133.51	75.875	49.036						
5.5000	132.80	-48.305	49.034						
5.5100	132.85	?	49.030						
5.5200	133.67	?	49.023						
5.5300	131.78	?	49.022						
5.5400	136.49	?	49.017						
5.5500	132.86	?	49.017						
5.5600	130.34	?	49.012						
5.5700	129.90	?	49.009						
5.5800	130.48	?	49.009						
5.5900	132.54	?	49.010						
5.6000	133.00	?	49.014						
5.6100	132.23	?	49.012						
5.6200	131.31	?	49.012						
5.6300	130.87	?	49.007						
5.6400	133.50	?	49.009						
5.6500	130.65	?	49.010						
5.6600	128.06	?	49.009						
5.6700	128.95	?	49.010						
5.6800	130.71	?	49.012						
5.6900	131.32	?	49.010						
5.7000	129.69	?	49.010						
5.7100	129.12	?	49.009						
5.7200	128.98	?	49.007						
5.7300	130.03	?	49.004						
5.7400	126.69	?	49.006						
5.7500	126.67	?	49.006						
5.7600	127.86	?	49.004						
5.7700	129.69	?	49.004						
5.7800	129.78	?	49.004						
5.7900	128.76	?	49.006						
5.8000	128.50	?	49.002						
5.8100	131.19	?	48.999						
5.8200	132.30	?	48.993						
5.8300	130.78	?	48.993						
5.8400	126.86	?	48.985						
5.8500	129.98	?	48.983						
5.8600	131.85	?	48.982						
5.8700	132.26	?	48.979						
5.8800	129.65	?	48.977						
5.8900	126.84	?	48.977						
5.9000	130.68	?	48.979						
5.9100	131.65	?	48.979						
5.9200	130.84	?	48.977						
5.9300	130.15	?	48.972						
5.9400	127.30	?	48.967						
5.9500	128.88	?	48.966						
5.9600	129.12	?	48.964						
5.9700	126.73	?	48.959						
5.9800	128.05	?	48.953						
5.9900	127.02	?	48.947						
6.0000	?	?	48.947						
6.0100	?	?	48.947						
6.0200	?	?	48.947						
6.0300	?	?	48.945						
6.0400	?	?	48.945						
6.0500	?	?	48.943						
6.0600	?	?	48.940						
6.0700	?	?	48.937						
6.0800	?	?	48.935						
6.0900	?	?	48.932						
6.1000	?	?	48.927						
6.1100	?	?	48.921						
6.1200	?	?	48.918						
6.1300	?	?	48.918						
6.1400	?	?	48.915						
6.1500	?	?	48.912						
6.1600	?	?	48.910						
6.1700	?	?	48.910						
6.1800	?	?	48.907						
6.1900	?	?		48.904						
6.2000	?	?	48.900						
6.2100	?	?	48.899						
6.2200	?	?	48.896						
6.2300	?	?	48.892						
6.2400	?	?	48.892						
6.2500	?	?	48.891						
6.2600	?	?	48.889						
6.2700	?	?	48.888						
6.2800	?	?	48.880						
6.2900	?	?	48.875						
6.3000	?	?	48.873						
6.3100	?	?	48.875						
6.3200	?	?	48.875						
6.3300	?	?	48.873						
6.3400	?	?	48.873						
6.3500	?	?	48.875						
6.3600	?	?	48.875						
6.3700	?	?	48.873						
6.3800	?	?	48.872						
6.3900	?	?	48.872						
6.4000	?	?	48.867						
6.4100	?	?	48.868						
6.4200	?	?	48.867						
6.4300	?	?	48.865						
6.4400	?	?	48.862						
6.4500	?	?	48.862						
6.4600	?	?	48.859						
6.4700	?	?	48.860						
6.4800	?	?		48.860						
6.4900	?	?	48.859						
6.5000	?	?	48.856						
6.5100	?	?	48.854						
6.5200	?	?	48.851						
6.5300	?	?	48.848						
6.5400	?	?	48.846						
6.5500	?	?	48.843						
6.5600	?	?	48.840						
6.5700	?	?	48.840						
6.5800	?	?	48.841						
6.5900	?	?	48.841						
6.6000	?	?	48.841						
6.6100	?	?	48.838						
6.6200	?	?	48.841						
6.6300	?	?	48.843						
6.6400	?	?	48.841						
6.6500	?	?	48.840						
6.6600	?	?	48.841						
6.6700	?	?	48.837						
6.6800	?	?	48.837						
6.6900	?	?	48.835						
6.7000	?	?	48.832						
6.7100	?	?	48.829						
6.7200	?	?	48.830						
6.7300	?	?	48.830						
6.7400	?	?	48.829						
6.7500	?	?	48.824						
6.7600	?	?	48.822						
6.7700	?	?	48.817						
6.7800	?	?	48.814						
6.7900	?	?	48.811						
6.8000	?	?	48.809						
6.8100	?	?	48.805						
6.8200	?	?	48.801						
6.8300	?	?	48.798						
6.8400	?	?	48.797						
6.8500	?	?	48.793						
6.8600	?	?	48.789						
6.8700	?	?	48.787						
6.8800	?	?	48.786						
6.8900	?	?	48.784						
6.9000	?	?	48.784						
6.9100	?	?	48.784						
6.9200	?	?	48.779						
6.9300	?	?	48.776						
6.9400	?	?	48.773						
6.9500	?	?	48.773						
6.9600	?	?	48.774						
6.9700	?	?	48.774						
6.9800	?	?	48.774						
6.9900	?	?	48.768						
7.0000	?	?	48.768						
7.0100	?	?	48.771						
7.0200	?	?	48.770						
7.0300	?	?	48.766						
7.0400	?	?	48.762						
7.0500	?	?	48.757						
7.0600	?	?	48.760						
7.0700	?	?	48.760						
7.0800	?	?	48.760						
7.0900	?	?	48.757						
7.1000	?	?	48.755						
7.1100	?	?	48.752						
7.1200	?	?	48.754						
7.1300	?	?	48.755						
7.1400	?	?	48.755						
7.1500	?	?	48.757						
7.1600	?	?	48.754						
7.1700	?	?	48.755						
7.1800	?	?	48.754						
7.1900	?	?	48.755						
7.2000	?	?	48.754						
7.2100	?	?	48.752						
7.2200	?	?	48.750						
7.2300	?	?	48.750						
7.2400	?	?	48.754						
7.2500	?	?	48.752						
7.2600	?	?	48.749						
7.2700	?	?	48.746						
7.2800	?	?	48.744						
7.2900	?	?	48.742						
7.3000	?	?	48.742						
7.3100	?	?	48.741						
7.3200	?	?	48.741						
7.3300	?	?	48.741						
7.3400	?	?	48.739						
7.3500	?	?	48.734						
7.3600	?	?	48.730						
7.3700	?	?	48.723						
7.3800	?	?	48.722						
7.3900	?	?	48.720						
7.4000	?	?	48.719						
7.4100	?	?	48.714						
7.4200	?	?	48.711						
7.4300	?	?	48.709						
7.4400	?	?	48.707						
7.4500	?	?	48.707						
7.4600	?	?	48.701						
7.4700	?	?	48.699						
7.4800	?	?	48.698						
7.4900	?	?	48.698						
7.5000	?	?	48.693						
7.5100	?	?	48.690						
7.5200	?	?	48.685						
7.5300	?	?	48.682						
7.5400	?	?	48.677						
7.5500	?	?	48.674						
7.5600	?	?	48.675						
7.5700	?	?	48.675						
7.5800	?	?	48.672						
7.5900	?	?	48.672						
7.6000	?	?	48.671						
7.6100	?	?	48.672						
7.6200	?	?	48.674						
7.6300	?	?	48.669						
7.6400	?	?	48.671						
7.6500	?	?	48.671						
7.6600	?	?	48.674						
7.6700	?	?	48.675						
7.6800	?	?	48.675						
7.6900	?	?		48.675						
7.7000	?	?	48.679						
7.7100	?	?	48.677						
7.7200	?	?	48.674						
7.7300	?	?	48.674						
7.7400	?	?	48.679						
7.7500	?	?	48.677						
7.7600	?	?	48.672						
7.7700	?	?	48.667						
7.7800	?	?	48.671						
7.7900	?	?	48.669						
7.8000	?	?	48.671						
7.8100	?	?	48.667						
7.8200	?	?	48.659						
7.8300	?	?	48.656						
7.8400	?	?	48.650						
7.8500	?	?	48.648						
7.8600	?	?	48.650						
7.8700	?	?	48.644						
7.8800	?	?	48.639						
7.8900	?	?	48.634						
7.9000	?	?	48.628						
7.9100	?	?	48.626						
7.9200	?	?	48.626						
7.9300	?	?	48.621						
7.9400	?	?	48.616						
7.9500	?	?	48.616						
7.9600	?	?	48.616						
7.9700	?	?	48.616						
7.9800	?	?	48.612						
7.9900	?	?	48.607						
8.0000	?	?	48.602						
8.0100	?	?	48.599						
8.0200	?	?	48.600						
8.0300	?	?	48.602						
8.0400	?	?	48.602						
8.0500	?	?	48.600						
8.0600	?	?	48.594						
8.0700	?	?	48.596						
8.0800	?	?	48.594						
8.0900	?	?	48.596						
8.1000	?	?	48.597						
8.1100	?	?	48.602						
8.1200	?	?	48.602						
8.1300	?	?	48.597						
8.1400	?	?	48.597						
8.1500	?	?	48.594						
8.1600	?	?	48.594						
8.1700	?	?	48.594						
8.1800	?	?	48.594						
8.1900	?	?	48.592						
8.2000	?	?	48.591						
8.2100	?	?	48.592						
8.2200	?	?	48.591						
8.2300	?	?	48.591						
8.2400	?	?		48.588						
8.2500	?	?	48.583						
8.2600	?	?	48.585						
8.2700	?	?	48.583						
8.2800	?	?	48.583						
8.2900	?	?	48.581						
8.3000	?	?	48.578						
8.3100	?	?	48.575						
8.3200	?	?	48.573						
8.3300	?	?	48.575						
8.3400	?	?	48.572						
8.3500	?	?	48.573						
8.3600	?	?	48.572						
8.3700	?	?	48.572						
8.3800	?	?	48.567						
8.3900	?	?	48.569						
8.4000	?	?	48.567						
8.4100	?	?	48.564						
8.4200	?	?	48.567						
8.4300	?	?	48.565						
8.4400	?	?		48.564						
8.4500	?	?	48.569						
8.4600	?	?	48.567						
8.4700	?	?	48.567						
8.4800	?	?	48.565						
8.4900	?	?	48.561						
8.5000	?	?	48.557						
8.5100	?	?	48.554						
8.5200	?	?	48.553						
8.5300	?	?	48.554						
8.5400	?	?	48.553						
8.5500	?	?	48.548						
8.5600	?	?	48.543						
8.5700	?	?	48.540						
8.5800	?	?	48.538						
8.5900	?	?	48.535						
8.6000	?	?	48.533						
8.6100	?	?	48.527						
8.6200	?	?	48.524						
8.6300	?	?	48.525						
8.6400	?	?	48.525						
8.6500	?	?	48.521						
8.6600	?	?	48.518						
8.6700	?	?	48.514						
8.6800	?	?	48.511						
8.6900	?	?	48.511						
8.7000	?	?	48.510						
8.7100	?	?	48.510						
8.7200	?	?	48.508						
8.7300	?	?	48.503						
8.7400	?	?	48.502						
8.7500	?	?	48.502						
8.7600	?	?	48.503						
8.7700	?	?	48.500						
8.7800	?	?	48.498						
8.7900	?	?	48.495						
8.8000	?	?	48.494						
8.8100	?	?	48.497						
8.8200	?	?	48.494						
8.8300	?	?	48.489						
8.8400	?	?	48.487						
8.8500	?	?	48.486						
8.8600	?	?	48.484						
8.8700	?	?	48.484						
8.8800	?	?	48.486						
8.8900	?	?		48.486						
8.9000	?	?	48.484						
8.9100	?	?	48.481						
8.9200	?	?	48.479						
8.9300	?	?	48.479						
8.9400	?	?	48.481						
8.9500	?	?	48.481						
8.9600	?	?	48.476						
8.9700	?	?	48.481						
8.9800	?	?	48.484						
8.9900	?	?	48.487						
9.0000	?	?	48.487						
9.0100	?	?	48.486						
9.0200	?	?	48.482						
9.0300	?	?	48.479						
9.0400	?	?	48.478						
9.0500	?	?	48.474						
9.0600	?	?	48.470						
9.0700	?	?	48.465						
9.0800	?	?	48.462						
9.0900	?	?	48.458						
9.1000	?	?	48.460						
9.1100	?	?	48.457						
9.1200	?	?	48.454						
9.1300	?	?	48.451						
9.1400	?	?	48.447						
9.1500	?	?	48.447						
9.1600	?	?	48.449						
9.1700	?	?	48.444						
9.1800	?	?	48.439						
9.1900	?	?	48.435						
9.2000	?	?	48.435						
9.2100	?	?	48.435						
9.2200	?	?	48.433						
9.2300	?	?	48.433						
9.2400	?	?	48.431						
9.2500	?	?	48.430						
9.2600	?	?	48.430						
9.2700	?	?	48.428						
9.2800	?	?	48.428						
9.2900	?	?	48.428						
9.3000	?	?	48.428						
9.3100	?	?	48.428						
9.3200	?	?	48.431						
9.3300	?	?	48.430						
9.3400	?	?	48.428						
9.3500	?	?	48.422						
9.3600	?	?	48.419						
9.3700	?	?	48.415						
9.3800	?	?	48.415						
9.3900	?	?	48.415						
9.4000	?	?	48.414						
9.4100	?	?	48.411						
9.4200	?	?	48.411						
9.4300	?	?	48.409						
9.4400	?	?	48.407						
9.4500	?	?	48.404						
9.4600	?	?	48.406						
9.4700	?	?	48.406						
9.4800	?	?	48.403						
9.4900	?	?	48.398						
9.5000	?	?	48.395						
9.5100	?	?	48.393						
9.5200	?	?	48.387						
9.5300	?	?	48.387						
9.5400	?	?	48.385						
9.5500	?	?	48.385						
9.5600	?	?	48.385						
9.5700	?	?	48.383						
9.5800	?	?	48.382						
9.5900	?	?	48.379						
9.6000	?	?	48.377						
9.6100	?	?	48.376						
9.6200	?	?	48.374						
9.6300	?	?	48.372						
9.6400	?	?	48.371						
9.6500	?	?	48.376						
9.6600	?	?	48.374						
9.6700	?	?	48.374						
9.6800	?	?	48.368						
9.6900	?	?	48.368						
9.7000	?	?		48.364						
9.7100	?	?	48.363						
9.7200	?	?	48.363						
9.7300	?	?	48.360						
9.7400	?	?	48.360						
9.7500	?	?	48.360						
9.7600	?	?	48.356						
9.7700	?	?	48.356						
9.7800	?	?	48.353						
9.7900	?	?	48.356						
9.8000	?	?	48.348						
9.8100	?	?	48.348						
9.8200	?	?	48.348						
9.8300	?	?	48.348						
9.8400	?	?	48.348						
9.8500	?	?	48.345						
9.8600	?	?	48.345						
9.8700	?	?	48.344						
9.8800	?	?	48.347						
9.8900	?	?	48.345						
9.9000	?	?	48.347						
9.9100	?	?	48.344						
9.9200	?	?	48.340						
9.9300	?	?	48.342						
9.9400	?	?		48.337						
9.9500	?	?	48.336						
9.9600	?	?	48.336						
9.9700	?	?	48.331						
9.9800	?	?	48.329						
9.9900	?	?	48.326						
10.000	?	?	48.326						
